time(sec),semimem,bifem,vasmed,vaslat,rf,medgas,latgas,tfl,tibant,peronl,soleus,addmagnus,gmax,gmed,sartorius
0.000000,0.033063,-0.045357,0.083452,-0.017046,0.037963,0.013903,-0.155233,-0.005245,0.176267,0.031275,-0.227296,-0.019800,-0.204795,-0.024190,-0.039360
0.000833,-0.005926,-0.017169,-0.085397,-0.025015,0.023233,0.060829,-0.043614,-0.006390,0.157918,-0.046426,-0.435841,0.021728,-0.081850,-0.013017,1.167829
0.001667,-0.057027,0.172819,-0.034068,0.009830,-0.014982,0.093822,0.167006,-0.011816,0.230527,-0.042353,-0.352107,-0.024947,0.370412,-0.005798,1.878527
0.002500,-0.008697,-0.063364,0.022583,0.000657,-0.046026,0.096619,0.202654,0.001956,0.038475,-0.050038,-0.103389,-0.000336,0.218775,0.013794,1.505006
0.003333,-0.000400,-0.105959,0.067743,-0.009663,-0.060904,0.079039,0.188946,0.018275,-0.126270,0.008189,-0.093920,-0.025709,-0.047558,0.024398,1.527703
0.004167,0.048892,0.168878,0.311018,-0.010300,-0.061599,0.047836,0.489483,0.005233,0.072205,-0.092285,0.140900,0.003496,0.023991,0.013348,1.113451
0.005000,0.017568,-0.169082,0.367041,0.001490,-0.091591,0.005177,0.751094,0.002332,-0.043672,-0.076810,0.303658,0.005986,-0.047399,-0.004096,0.832818
0.005833,0.010310,-0.094048,0.232188,-0.005879,-0.120802,0.023251,0.526844,-0.000055,-0.392503,-0.086385,0.061388,0.006059,0.052115,-0.016646,0.410968
0.006667,-0.011328,0.155740,0.132140,0.006504,-0.126167,0.009595,0.310416,-0.017202,-0.174204,-0.003687,-0.084521,0.085533,0.000520,-0.006907,-0.145683
0.007500,-0.012094,-0.139525,-0.021487,0.005835,-0.119250,-0.031066,0.162976,-0.002887,-0.032325,-0.013207,0.011946,0.078875,0.114513,0.005588,-0.880717
0.008333,0.006191,-0.131197,-0.129124,-0.000709,-0.095285,-0.029320,0.111109,0.002904,-0.017922,0.023892,0.189796,0.056446,0.275892,0.019463,-1.003941
0.009167,0.019882,0.246298,-0.119158,0.010527,-0.044619,-0.041191,0.389603,0.000466,0.077188,0.068833,0.286519,0.091346,0.540986,0.014574,-0.366455
0.010000,-0.021975,0.208623,-0.164912,0.006438,0.047441,-0.055263,1.012371,-0.010051,0.208958,0.044232,0.202007,0.053265,-0.015646,0.005872,-0.156760
0.010833,0.022231,-0.033529,-0.230384,0.012973,0.099605,-0.045938,0.724337,-0.009273,0.255203,-0.003850,-0.000573,0.049008,-0.019822,-0.012140,-0.241154
0.011667,0.008772,-0.131516,0.086616,0.007098,0.108553,-0.010357,-0.056499,-0.015051,0.163467,-0.035461,-0.152613,0.028053,-0.160520,-0.019934,-0.293030
0.012500,-0.039301,-0.225279,0.259459,-0.000496,0.120094,-0.037672,-0.324866,0.006339,0.075066,0.042911,-0.210628,0.012351,-0.269650,-0.008816,-0.126441
0.013333,0.004672,-0.127909,0.357666,0.006678,0.128301,-0.046140,-0.065808,-0.006896,0.104305,0.041419,-0.364588,0.020793,-0.139619,0.002291,-0.440106
0.014167,0.004288,-0.103387,0.319070,-0.013635,0.125863,-0.044502,-0.083307,-0.005921,-0.106174,0.107434,-0.365921,-0.009062,0.485221,0.017809,-0.445133
0.015000,-0.032048,0.189629,0.084099,-0.001002,0.092186,-0.052640,-0.096580,0.008206,-0.216562,0.081933,-0.027399,0.000570,0.087592,0.003707,-0.348990
0.015833,-0.001633,0.095319,-0.320293,-0.011108,0.072125,-0.065103,-0.200777,0.003453,-0.118532,-0.053120,0.184529,-0.012758,-0.273495,0.006066,-0.284490
0.016667,0.013603,-0.190994,-0.114271,0.000308,0.075123,-0.007625,-0.300263,0.011267,-0.041445,-0.165916,0.137423,-0.008034,-0.353693,-0.011433,0.509466
0.017500,-0.020354,0.003616,-0.030277,0.007468,0.036152,0.019809,-1.058458,0.008773,-0.116853,-0.117019,0.180566,-0.053957,-0.053458,-0.026972,2.016896
0.018333,0.004231,0.213309,0.032706,-0.000909,-0.005911,0.070564,-1.577574,-0.003248,-0.079592,-0.089257,0.320529,-0.089520,0.248245,0.002175,1.940865
0.019167,-0.024937,-0.021801,-0.128997,0.006618,-0.035239,0.046638,-1.172597,0.005737,-0.007360,-0.102644,-0.044032,-0.113680,-0.371358,0.007495,0.317708
0.020000,0.001555,-0.081889,-0.482819,-0.009615,-0.042874,0.059690,-0.571070,0.007214,0.134439,0.085713,-0.194882,-0.051073,-0.237684,0.017827,-0.459995
0.020833,0.033207,0.236761,-0.735853,0.011588,-0.045646,0.023317,-0.282880,0.009897,0.086515,0.056633,0.055510,-0.041936,-0.008590,-0.012451,0.145579
0.021667,0.000136,0.042892,-0.473853,-0.032304,-0.057792,0.039110,0.160121,0.006329,0.014684,0.176914,0.042929,-0.013182,0.344879,-0.009790,0.566994
0.022500,0.034333,-0.152931,-0.068678,-0.010211,-0.046551,0.076976,0.528668,-0.015220,-0.030448,0.161957,0.013190,-0.045062,-0.177515,-0.010353,0.109941
0.023333,0.008996,0.166109,-0.146075,-0.001322,-0.049496,0.102554,0.879812,0.000963,-0.054886,0.050044,0.138712,-0.027852,-0.116123,-0.007726,-0.130747
0.024167,-0.009807,0.020400,-0.459584,0.011154,-0.054608,0.067906,0.741625,-0.008732,-0.002078,-0.028382,0.085016,-0.050947,0.033148,0.014113,-0.185343
0.025000,-0.014301,-0.166783,-0.211746,0.015470,-0.068319,0.076774,0.219302,-0.019414,-0.039628,-0.102939,-0.018204,0.011568,-0.028145,0.010307,-0.827421
0.025833,-0.015481,0.164247,0.421532,0.007815,-0.051887,0.023246,-0.148602,0.000976,-0.011958,-0.077508,-0.008447,0.018275,0.106522,0.012903,-0.768671
0.026667,-0.009695,0.041042,0.479721,0.007415,-0.043620,-0.008151,-0.185313,-0.004002,0.088495,-0.025494,-0.111700,0.088230,0.369590,0.001152,-0.117689
0.027500,0.005941,-0.227872,0.526009,0.002522,-0.036646,-0.088369,0.055672,0.005494,-0.012994,-0.002901,-0.179645,0.086581,0.274658,-0.007091,-0.050584
0.028333,0.006998,0.018051,0.324749,0.012053,-0.025460,-0.192066,0.041861,-0.005313,-0.140253,0.038183,-0.131562,0.084932,-0.015258,-0.009228,-0.077151
0.029167,0.041523,0.121913,0.101826,-0.022130,-0.039033,-0.286723,0.144961,0.003264,0.004657,0.134232,-0.073031,0.049599,-0.153263,-0.008614,0.168054
0.030000,0.022978,-0.203767,0.048436,0.004186,-0.015384,-0.212857,0.264071,0.005141,0.291971,0.070566,-0.053632,0.016628,-0.220777,0.005740,0.091362
0.030833,0.025195,0.143607,0.137520,0.016990,0.028584,-0.090667,0.375297,-0.002571,0.373729,-0.000514,-0.003157,0.007262,-0.303944,0.014000,-0.188857
0.031667,0.012905,0.130100,0.040592,0.003306,0.010209,-0.011204,0.594150,0.005006,0.209287,-0.065709,0.117327,-0.022413,0.222610,0.015405,-0.782907
0.032500,0.009431,-0.095360,0.040376,-0.002086,0.002929,0.046335,1.070117,0.006513,0.059218,-0.069601,0.171736,-0.026138,0.288396,-0.001641,-1.025134
0.033333,-0.023396,-0.210348,0.048747,-0.006516,0.028150,0.082770,0.638839,0.001646,-0.111613,-0.273230,0.098606,-0.061417,-0.366224,-0.012417,-0.716456
0.034167,0.039221,-0.101026,-0.004626,-0.020676,0.021676,0.065809,-0.369496,-0.015243,-0.243566,-0.164315,0.122121,-0.026761,-0.312355,-0.014025,-1.204590
0.035000,-0.020785,0.189592,0.243838,-0.006582,0.023373,0.069208,-0.676873,0.007417,-0.170183,-0.111309,-0.019072,-0.052470,-0.307388,-0.002648,-1.211228
0.035833,-0.037875,0.183925,0.520925,0.003103,0.045486,0.077457,-0.911299,-0.002251,-0.137581,-0.005672,-0.129776,-0.003193,-0.124225,0.013169,-1.274368
0.036667,-0.047005,-0.155849,0.361126,0.003485,0.051731,0.091824,-0.551374,0.006707,-0.144365,0.153414,-0.174866,-0.028463,0.397234,0.013282,-1.424915
0.037500,-0.023009,0.055459,0.496575,0.009355,0.052813,0.106246,-0.019022,0.012609,-0.128236,0.153751,-0.214428,-0.005607,0.148765,0.007457,-0.655243
0.038333,-0.046003,0.045325,0.247343,-0.000202,0.063703,0.071166,0.014175,-0.007753,-0.174281,0.106323,-0.161913,0.058347,0.026215,-0.010868,0.079328
0.039167,0.001653,-0.270293,-0.101064,-0.005817,0.058779,0.095858,0.061158,0.009687,-0.255567,0.058939,-0.080010,0.019338,-0.053283,-0.014229,0.673765
0.040000,-0.031867,0.004174,-0.252901,0.007607,0.043686,0.052316,0.139561,-0.004824,-0.133813,-0.017196,-0.028359,0.032832,0.313834,-0.012850,0.877479
0.040833,-0.023879,0.041586,-0.275390,-0.000224,0.018877,0.021566,0.020127,-0.003704,0.150801,-0.186285,0.142897,0.098038,0.672806,-0.001850,1.438686
0.041667,-0.005506,-0.187932,0.037885,-0.002005,-0.011997,-0.041564,0.023833,0.004020,0.148408,-0.022732,0.418961,0.062185,0.056765,0.009919,1.644516
0.042500,0.023872,0.033432,0.112158,0.013549,-0.028051,-0.065983,0.053113,0.002299,0.094417,0.158240,0.204739,0.076757,0.076652,0.017268,2.267432
0.043333,0.065028,0.248557,-0.187809,-0.004380,-0.020154,-0.063463,-0.064354,0.010328,0.074550,0.152173,-0.072079,0.035058,-0.182244,0.016534,3.193553
0.044167,0.015434,-0.079941,-0.390780,0.003252,-0.018546,-0.027778,-0.088122,0.009921,0.066801,0.013543,-0.126484,0.010749,0.471072,-0.008613,3.733166
0.045000,0.009688,0.008811,-0.826361,-0.005367,-0.028752,-0.018622,-0.071768,-0.002004,0.083948,0.032719,-0.025039,-0.018182,-0.075938,-0.013923,2.826281
0.045833,0.007367,0.179600,-1.067985,-0.000792,-0.049430,-0.009485,-0.034204,0.017097,0.094968,0.097530,0.032321,-0.056042,-0.281487,-0.015877,1.010390
0.046667,0.018709,-0.080101,-0.883535,-0.002401,-0.049486,-0.014293,-0.009125,0.012718,0.077369,0.081916,0.324474,-0.058311,-0.365408,-0.004099,0.117813
0.047500,0.011991,0.008377,-0.696782,-0.009587,-0.045586,0.003533,-0.020736,0.001009,0.031383,0.026432,0.388867,-0.073234,-0.391884,0.008743,-0.057126
0.048333,-0.014452,0.185334,-0.523081,-0.001900,-0.049052,-0.036615,-0.041796,-0.004629,0.012001,-0.115804,0.065979,-0.057348,-0.272959,0.010748,-1.154839
0.049167,0.014162,-0.160806,-0.108855,-0.015196,-0.045876,-0.045514,-0.038171,-0.013222,0.020644,-0.119768,-0.114318,-0.085438,0.349119,0.012749,-2.539952
0.050000,0.011634,0.037151,0.162168,0.000577,-0.004042,-0.034650,0.019725,0.010459,0.045434,-0.134277,-0.265463,-0.052991,-0.023806,-0.010432,-2.731928
0.050833,-0.000356,0.197681,0.359188,0.002091,0.051401,-0.009551,0.070251,-0.022409,0.011918,-0.076828,-0.340063,-0.057971,-0.186164,-0.014239,-2.701492
0.051667,0.011313,-0.167209,0.586972,0.002778,0.053296,-0.014349,0.081398,-0.000753,-0.006367,-0.024676,-0.233347,0.008269,-0.235465,-0.012863,-2.614563
0.052500,-0.040322,-0.060228,0.702801,0.009665,0.033819,0.008451,0.053068,-0.003163,0.012983,0.081643,-0.068805,-0.001508,-0.100130,0.002851,-2.283375
0.053333,-0.031657,0.207780,0.757566,0.000789,0.041480,0.027543,-0.032512,-0.004008,0.022930,0.046012,0.060906,-0.016026,0.233917,0.012763,-1.681935
0.054167,-0.040808,-0.131032,0.642833,-0.001870,0.059180,0.072812,-0.082625,-0.004045,0.053171,0.044171,0.079467,0.058272,0.365884,0.011531,-0.994214
0.055000,-0.002003,-0.225253,0.517452,-0.007609,0.057464,0.043839,-0.061296,-0.019443,0.039858,0.087530,0.014636,0.012672,-0.112026,0.010907,-0.182484
0.055833,0.028764,0.138713,0.566007,-0.006500,0.006881,0.050017,-0.001812,-0.027453,-0.004424,-0.136595,-0.109631,-0.014554,-0.133440,-0.006811,-0.071909
0.056667,-0.002060,-0.004585,0.390588,-0.002348,-0.053045,-0.021729,0.297846,0.005362,-0.050158,-0.087457,-0.119219,0.034300,-0.049824,-0.012782,0.222509
0.057500,0.008678,-0.126456,0.425740,-0.004451,-0.080650,-0.041854,0.217713,-0.006884,-0.072714,-0.035311,0.001308,-0.009500,-0.118028,-0.009753,0.790878
0.058333,0.028477,-0.133692,0.252056,0.005511,-0.051811,-0.020273,0.093798,-0.015486,-0.053877,-0.031747,0.043393,0.029399,-0.092124,0.003193,1.020246
0.059167,0.048338,0.187765,-0.233624,0.010610,-0.019611,-0.001837,-0.178870,-0.005003,-0.056607,0.002114,0.062928,0.042072,-0.008164,0.015071,0.811762
0.060000,-0.003915,0.218998,-0.542485,0.003072,-0.013324,-0.014762,-0.542294,-0.008511,-0.080539,0.066876,0.063318,0.031289,-0.032666,0.018097,1.089373
0.060833,0.009657,-0.006441,-0.614239,0.012507,0.002018,-0.010963,-0.357120,0.005003,-0.077241,0.041232,0.032412,0.038725,0.168790,-0.003900,1.160341
0.061667,0.020997,-0.188121,-0.535439,-0.002429,0.003102,-0.010558,-0.174799,-0.003638,-0.082808,-0.011032,0.027639,0.054932,0.017831,-0.014452,0.839386
0.062500,0.005994,0.041834,-0.421225,0.009690,-0.015379,-0.029083,-0.111002,-0.019594,-0.051546,-0.005682,0.021136,0.029567,0.074836,-0.018136,0.711744
0.063333,-0.069535,0.092443,-0.321930,-0.018575,-0.033858,-0.029885,0.012929,0.014702,-0.025794,0.011365,0.009302,0.063496,0.175373,-0.006101,0.874297
0.064167,-0.017606,-0.131214,-0.224451,0.018369,-0.031545,-0.032306,0.170550,0.005905,0.029171,0.028068,0.021340,0.012373,0.060078,0.011887,1.508857
0.065000,0.004612,-0.182059,-0.147006,-0.001087,-0.014657,-0.034020,0.177923,0.003794,0.087043,-0.003013,0.028161,0.016730,0.006221,0.009738,2.288897
0.065833,-0.024704,-0.081001,-0.064816,-0.014993,0.031034,-0.034988,0.204778,0.009930,0.131748,0.014117,0.033937,-0.019415,0.125491,0.003168,2.146109
0.066667,-0.003933,-0.066539,-0.088331,0.007473,0.056278,0.008928,0.108922,0.014579,0.174532,0.040719,0.050619,-0.000088,0.113902,-0.004007,0.879497
0.067500,0.020536,0.141782,-0.092898,0.000696,0.034711,0.023760,0.084280,0.015784,0.070855,0.018526,0.060547,-0.018528,0.095765,-0.010262,-0.291826
0.068333,-0.020728,0.216045,-0.086038,0.001601,0.025565,0.060662,0.208007,0.011278,-0.040152,0.050249,0.041939,-0.041475,0.106103,-0.009644,-0.366900
0.069167,-0.014964,-0.010075,-0.066459,0.010642,-0.003331,0.061687,0.188726,-0.008994,-0.117314,-0.033769,0.001538,-0.059015,-0.015846,-0.000170,-0.811125
0.070000,0.012803,-0.119870,0.214903,0.007824,-0.045855,0.049751,0.207738,0.027307,-0.272339,-0.028882,-0.028283,-0.067793,-0.066176,0.012667,-1.547289
0.070833,0.001383,-0.159431,0.345913,0.002758,-0.033635,0.007943,0.152124,0.022378,-0.309770,-0.071790,-0.075127,-0.043091,0.001992,0.016813,-1.973136
0.071667,0.007081,0.203870,0.259867,0.000472,-0.000235,-0.022363,0.036960,0.007499,0.129282,0.015756,-0.140813,-0.066998,-0.231996,0.010131,-2.409582
0.072500,-0.003522,0.264143,0.383043,-0.009415,0.009176,-0.006364,0.104196,0.009062,0.327361,0.025953,-0.120356,-0.003857,-0.132741,-0.007378,-2.601911
0.073333,-0.006013,-0.040885,0.234717,-0.009207,0.031362,0.021771,0.147466,-0.006820,0.352996,0.085629,-0.147123,-0.014337,0.066167,-0.007945,-1.498616
0.074167,0.025394,0.005924,0.298049,-0.008066,0.047082,0.032750,0.057137,0.009733,0.351482,0.057477,-0.172143,-0.036018,-0.033346,-0.009728,-0.836809
0.075000,0.009064,0.181767,0.438061,0.000871,0.050511,0.057240,0.221928,-0.005691,0.061016,0.010493,0.040774,0.006336,0.080380,-0.001284,-0.912577
0.075833,0.014267,-0.098097,0.481483,-0.002695,0.052911,0.016653,0.585932,0.007459,-0.180371,-0.110688,0.149193,0.002873,0.092751,0.011131,-1.009116
0.076667,0.018572,-0.070756,0.439244,0.005035,0.046614,-0.018071,-0.346255,0.013145,-0.254212,-0.217542,0.227849,-0.036936,-0.064228,0.008747,-1.043983
0.077500,0.012209,0.145056,0.287824,-0.014852,0.025016,-0.036874,-1.041894,-0.006061,-0.185612,-0.117785,0.273649,-0.006882,0.112749,-0.003400,0.073966
0.078333,0.018215,-0.120087,0.515694,-0.011546,0.025151,-0.018720,0.295138,-0.008535,-0.119751,-0.014031,0.055525,0.016136,0.042874,-0.011122,1.141889
0.079167,-0.045199,-0.200763,0.619578,0.000759,0.012484,-0.025428,0.842662,-0.012316,-0.046157,0.068409,-0.037025,0.036088,-0.120541,-0.012436,1.347865
0.080000,-0.040251,0.190800,0.182201,0.004972,-0.011662,-0.031235,-0.244390,-0.009658,-0.074890,0.028995,0.031340,0.089589,-0.005653,-0.005815,1.214450
0.080833,0.008488,-0.067227,0.338372,-0.002264,-0.024754,-0.025484,-1.107469,-0.008071,-0.084068,0.057559,0.112844,0.095761,-0.088983,0.009044,1.068929
0.081667,-0.006255,-0.168256,-0.141626,0.002244,-0.047896,-0.031700,-1.481920,-0.013386,-0.101487,0.009606,0.115256,0.073965,-0.198376,0.017951,1.319316
0.082500,0.015614,0.142093,-1.010463,-0.002105,-0.057634,-0.006422,-1.049760,-0.017396,-0.046600,0.081364,-0.008949,-0.004353,-0.247254,0.012054,2.043719
0.083333,0.023586,-0.135149,-1.523840,0.002542,-0.051870,0.002716,-0.127433,-0.006855,0.004893,0.070954,-0.081921,-0.009370,-0.278864,-0.009562,2.946954
0.084167,0.002704,-0.130194,-1.594180,0.007337,-0.045134,-0.009652,0.199783,-0.020699,0.016662,0.081970,-0.130274,-0.010698,0.167718,-0.015616,1.925772
0.085000,0.007591,0.155324,-1.407661,-0.005727,-0.043096,-0.021882,0.346112,0.003152,0.145090,0.053052,-0.155742,0.044418,0.500890,-0.016027,0.878902
0.085833,-0.027520,-0.055674,-1.539836,0.009585,-0.012968,0.017269,0.306951,0.009136,0.172408,-0.018422,-0.193008,0.025322,-0.217921,-0.009117,1.027560
0.086667,-0.018708,-0.145145,-1.435494,0.001850,0.006025,0.040185,0.235021,0.001660,-0.011895,0.022239,-0.176346,0.035729,-0.259273,0.008319,-0.556759
0.087500,-0.030976,-0.133778,-1.302390,-0.000093,-0.022740,0.077208,0.323783,0.009706,-0.190583,-0.057394,0.157891,0.043701,-0.188326,0.019191,-3.386313
0.088333,0.006628,0.008559,-0.937417,0.003604,-0.021742,0.021202,0.447312,0.005949,-0.123557,-0.068004,0.096343,-0.007874,-0.005813,0.016937,-4.639223
0.089167,0.018877,-0.017593,-0.166001,-0.018495,-0.009124,0.021534,0.591809,0.000304,-0.065727,-0.077996,-0.120515,0.012491,0.417387,0.003542,-3.968012
0.090000,-0.022153,0.081264,0.599906,0.024704,0.001858,-0.002224,0.360900,0.014437,-0.216339,0.016341,-0.225032,-0.053783,0.231395,-0.009094,-2.309951
0.090833,0.021936,0.315424,1.325348,0.012655,0.014131,0.002405,0.114088,-0.012380,-0.180641,0.001334,-0.111751,-0.042393,0.047200,-0.012119,-0.104703
0.091667,0.018390,-0.003220,1.819646,0.015699,0.004685,-0.003040,0.147346,-0.009187,0.108636,0.052410,0.061887,-0.096494,0.150312,0.002399,2.384823
0.092500,0.011155,-0.044379,1.806233,0.000569,0.023301,-0.022226,0.164867,-0.007103,0.388833,0.061489,0.041858,-0.074656,0.131041,-0.005211,3.602146
0.093333,-0.028151,-0.094867,1.760198,-0.006338,0.021492,-0.043560,0.175500,0.001514,0.550610,0.020137,0.035723,-0.074547,0.127778,0.015403,4.035696
0.094167,-0.013011,0.098195,1.556018,-0.005637,0.018679,-0.031180,0.141511,0.000659,0.566836,0.019104,0.101817,-0.022010,-0.102421,0.007022,3.034347
0.095000,0.015983,0.149398,1.154922,-0.012588,0.022988,-0.020939,0.013518,-0.009194,0.264786,0.213998,0.083170,-0.036056,-0.096647,-0.004415,1.611533
0.095833,0.020073,-0.195603,0.859151,-0.007356,0.029121,-0.022746,-0.091736,-0.001169,-0.080148,0.276274,0.055664,0.003878,-0.218427,-0.016467,0.706236
0.096667,0.001850,0.008176,0.531729,-0.005965,0.001104,-0.001034,-0.099044,0.012398,-0.302000,0.083849,0.172540,0.000314,-0.296492,-0.020589,0.132956
0.097500,0.002511,0.194016,0.053027,-0.001549,-0.017385,-0.021094,-0.162571,0.001317,-0.259848,-0.021025,0.242491,0.014169,-0.247792,0.001987,-0.501691
0.098333,0.002521,0.010180,-0.118445,0.003907,-0.028908,-0.032707,-0.122780,-0.000664,0.042414,-0.418129,0.009816,0.051588,-0.271591,0.015404,-0.895901
0.099167,0.028428,-0.003048,-0.149025,-0.008976,-0.014512,-0.049735,0.048782,-0.004660,0.250085,-0.591082,-0.088902,-0.004720,-0.067761,0.020881,-1.203892
0.100000,0.033384,-0.030190,0.024928,-0.023564,-0.005303,-0.028670,-0.126793,-0.004083,0.080337,-0.344075,-0.030594,0.011770,0.098457,0.003923,-1.712405
0.100833,-0.017709,-0.154460,0.040178,-0.010561,0.003778,-0.000615,-0.156882,0.009637,-0.178819,-0.146725,-0.014060,0.033364,-0.007846,-0.006631,-2.406862
0.101667,-0.003393,-0.128884,-0.023146,0.007149,0.026478,0.028043,-0.087636,-0.002080,-0.235541,-0.033457,-0.010135,-0.032957,0.271027,-0.021461,-3.023796
0.102500,-0.017359,-0.107799,-0.482731,0.013543,0.038546,0.040540,-0.285628,-0.011286,-0.147088,0.094066,-0.037418,-0.055606,0.244775,-0.005931,-2.433811
0.103333,-0.009254,0.107384,-1.006831,0.009694,0.033884,0.060393,-0.126499,0.010117,0.070512,0.179612,-0.036536,0.044669,0.121348,0.006086,-1.194202
0.104167,-0.015850,0.346293,-1.259227,0.016660,0.019967,0.064579,-0.016290,0.009964,-0.014084,0.139638,-0.071865,0.085580,0.376912,0.005435,-0.009677
0.105000,-0.011664,0.195327,-1.179349,0.002249,0.031885,0.060893,-0.176382,0.011926,-0.138210,0.180062,-0.157884,0.050091,0.219897,0.019886,0.324107
0.105833,-0.014545,0.042731,-0.800525,0.007050,0.033619,0.036526,-0.089139,-0.007938,-0.160928,0.139361,-0.040824,0.024156,0.189126,0.004580,0.436898
0.106667,-0.036391,-0.106548,-0.563512,0.005586,0.017526,0.025358,-0.057971,0.004250,-0.202483,0.172474,0.077002,0.029487,0.186031,-0.009508,0.419718
0.107500,0.000016,-0.234134,-0.431504,0.000757,0.009833,0.058216,-0.055903,0.008828,-0.197080,0.206819,0.030818,0.008594,0.109286,-0.018716,-0.049469
0.108333,0.004350,0.158397,-0.263333,0.008130,-0.021674,0.065824,-0.012900,-0.008845,-0.120538,0.094272,-0.032869,-0.000038,-0.103383,-0.006868,-0.077542
0.109167,0.000423,0.139118,-0.123239,-0.006930,-0.032765,0.008050,0.046801,-0.002834,-0.080471,0.041158,0.132695,-0.039567,-0.016356,0.000858,-0.620549
0.110000,0.015713,-0.036294,-0.217541,-0.000931,-0.024528,-0.035612,0.075185,0.001686,-0.046978,-0.143704,0.170783,-0.042683,0.513635,0.013466,-1.072518
0.110833,0.022762,-0.206300,-0.170479,-0.036585,-0.047186,-0.027630,0.037379,0.009901,0.000868,-0.088156,-0.047367,-0.090096,-0.092842,0.012645,-0.508801
0.111667,-0.026634,-0.074607,-0.176719,0.005587,-0.062154,-0.016683,0.046536,0.007312,0.058694,-0.112798,-0.264316,-0.027840,-0.307588,0.008163,0.293753
0.112500,0.015240,0.085941,-0.339756,0.004586,-0.056023,-0.135068,0.044010,-0.018295,0.078499,-0.036994,-0.336304,-0.024223,-0.521467,-0.017071,0.946281
0.113333,0.007557,-0.183642,-0.219211,-0.006167,-0.061157,-0.234930,0.052644,-0.002843,0.050751,-0.016574,0.049646,-0.038057,-0.409969,-0.013160,0.988407
0.114167,0.025402,-0.099798,-0.077497,-0.002104,-0.022945,-0.110123,0.011211,0.009404,0.040233,0.011281,0.145109,0.000373,-0.396523,-0.002991,1.157136
0.115000,0.028655,0.032638,-0.004758,0.001520,0.010993,-0.026148,0.093167,-0.001709,0.045959,0.092751,0.101160,0.067541,-0.312768,0.009011,1.669888
0.115833,0.009545,-0.222073,0.316095,0.001200,0.019741,0.013944,0.173959,-0.012550,0.055187,0.143547,0.097097,0.050654,-0.006921,0.012319,2.619057
0.116667,0.004092,-0.007384,0.537424,0.004718,0.028466,0.017175,0.145971,0.001887,0.049972,-0.013245,-0.017528,0.087458,0.024814,0.005407,2.713797
0.117500,-0.012718,0.088559,0.459828,-0.001959,0.041433,0.016352,0.260619,-0.004197,0.044088,0.055202,-0.005295,0.091695,-0.130516,-0.009131,2.601986
0.118333,-0.013870,-0.136480,0.420013,0.005584,0.023231,0.029480,0.454370,-0.001070,0.040756,0.072943,-0.003088,0.062858,-0.043867,-0.009168,2.326933
0.119167,0.011174,-0.043819,0.350209,-0.000269,0.025125,0.097604,0.051350,-0.019122,0.104355,-0.151123,-0.166111,0.035222,-0.200298,-0.013320,1.731761
0.120000,-0.014332,0.182019,0.372048,-0.005631,0.053361,0.119856,-0.537286,0.016237,0.126046,-0.230856,-0.153671,0.000032,0.434948,0.003134,0.959787
0.120833,-0.025988,0.065376,0.887344,0.001553,0.076195,0.123081,-0.618106,0.019836,0.123606,-0.021043,-0.000750,0.020094,0.464721,0.014558,0.043979
0.121667,-0.039659,-0.054592,1.695382,0.001752,0.049521,0.085904,-0.281829,0.014843,0.167265,0.151279,0.143369,-0.045795,-0.094217,0.012714,-1.289841
0.122500,-0.002546,0.042707,1.817898,0.010835,0.018958,0.058659,0.111805,0.016641,0.206829,0.031559,0.378569,-0.019470,-0.078843,0.002332,-2.064815
0.123333,-0.053194,-0.150139,1.113031,0.004998,0.006775,0.017827,0.355637,-0.000889,0.137446,-0.021493,0.232522,-0.041978,0.059811,-0.009722,-1.883022
0.124167,-0.033216,-0.090141,0.711312,-0.001418,-0.013428,-0.017391,0.088391,0.018077,0.129043,-0.197707,0.135908,-0.084986,0.174524,-0.010019,-2.724978
0.125000,0.007643,0.269614,1.332006,-0.001091,-0.072174,-0.026576,-0.374338,-0.000035,0.163687,-0.244705,0.312187,-0.035164,0.169809,-0.011988,-3.889814
0.125833,0.017653,0.200111,1.265801,-0.005771,-0.118044,-0.037830,0.031482,-0.017707,-0.030176,-0.110596,-0.010667,-0.077333,0.096506,0.002530,-4.242655
0.126667,0.031600,-0.032502,0.545099,0.012765,-0.103580,-0.033479,0.452767,0.016615,-0.316100,-0.040420,-0.110383,-0.073428,-0.269818,0.015985,-3.501849
0.127500,0.039710,-0.000512,-0.343508,0.001720,-0.068912,-0.024534,0.287582,0.008616,-0.169924,0.077546,-0.097209,-0.026062,-0.181016,0.009305,-2.154875
0.128333,0.031749,0.235649,-1.069219,-0.009003,-0.005949,0.009432,-0.198551,-0.013182,-0.260879,0.053060,-0.256245,-0.050297,-0.128738,0.001257,-0.848593
0.129167,0.091168,-0.036785,-2.186064,-0.010863,0.039081,-0.010636,-0.454622,-0.012013,-0.322534,0.093220,-0.463040,-0.026049,0.375416,-0.009533,0.225407
0.130000,0.065669,0.048075,-2.918493,-0.009358,0.050012,-0.022341,-0.152255,-0.012906,-0.098523,0.115672,-0.292682,0.038600,0.169582,-0.006892,1.830451
0.130833,-0.018064,0.125629,-3.144110,0.005731,0.056454,-0.079089,0.156492,-0.006245,-0.038651,0.175085,0.019510,0.033341,-0.336331,-0.008064,3.630047
0.131667,-0.016774,-0.118688,-2.967454,0.012732,0.052922,-0.074523,0.438047,-0.009267,-0.043091,0.145921,-0.012015,0.066377,-0.292843,0.002211,4.540946
0.132500,0.005737,0.099943,-1.827364,0.012251,0.028745,-0.048914,0.518303,-0.012653,0.097399,0.145867,-0.011276,0.065099,-0.061300,0.018894,4.232885
0.133333,-0.017693,0.112776,-1.098025,-0.001514,0.017043,-0.039625,0.193243,-0.010740,0.111422,-0.028438,0.102005,-0.016855,0.332151,0.013450,2.623972
0.134167,0.006448,-0.230751,-0.813225,-0.008425,0.006380,-0.019011,-0.257908,-0.018918,0.019650,-0.150214,0.111187,0.011433,0.213273,0.002206,0.774365
0.135000,-0.039965,-0.031248,-0.407207,-0.007266,-0.001406,0.014793,-0.682575,-0.012595,0.001611,-0.079202,0.086658,-0.010072,-0.033556,-0.022774,-0.590328
0.135833,-0.099276,0.098380,0.064724,-0.011163,-0.013631,0.030697,-0.702656,-0.016614,-0.043154,-0.122989,0.034731,-0.010540,-0.036823,-0.007934,-1.319222
0.136667,-0.026241,-0.170955,0.198059,0.005669,-0.013811,0.060941,-0.161459,-0.032771,-0.087219,-0.028562,-0.049717,-0.023663,-0.018477,0.000034,-1.624843
0.137500,-0.002762,0.061831,0.299656,-0.003313,-0.023457,0.040568,0.181114,0.007022,-0.014647,-0.013797,-0.051866,0.002315,0.146479,0.001281,-1.661342
0.138333,-0.011612,-0.027327,0.867048,0.003242,-0.028982,-0.031750,0.032992,0.007741,0.065749,0.029355,-0.020775,-0.009025,0.145529,0.011829,-1.600071
0.139167,-0.045021,-0.202301,1.240269,0.007630,-0.001851,-0.109426,0.051654,-0.001125,0.092468,-0.021012,-0.004737,0.020311,0.144786,0.007569,-1.262573
0.140000,-0.027164,0.166429,1.483339,-0.005407,0.012010,-0.191807,0.235392,0.013419,0.037741,0.041104,-0.060590,0.029309,0.147975,-0.011501,-0.564798
0.140833,0.012197,0.012384,1.780755,0.002581,0.024353,-0.115434,0.171727,-0.005045,-0.034339,0.042977,-0.041016,0.033703,0.047252,-0.020050,-0.339720
0.141667,0.000578,-0.247741,1.812098,-0.000145,0.030297,-0.061241,0.150071,-0.001857,0.002584,0.060596,-0.019190,0.045714,0.130105,-0.005109,-0.652764
0.142500,0.027850,0.058506,1.744473,-0.007022,0.025723,0.027864,-0.028757,0.015385,0.038667,0.036583,-0.033199,0.044142,-0.070545,0.008909,-0.542132
0.143333,0.040910,0.042928,1.749379,-0.000044,0.013228,0.365823,0.013594,0.003377,0.038987,0.116958,0.141766,0.087130,-0.046899,0.019258,-0.315429
0.144167,0.070886,-0.308934,1.752897,-0.015681,0.000594,0.452461,0.175576,0.022869,0.017452,0.004622,0.315925,0.064060,0.044622,0.017089,-0.349432
0.145000,0.054454,-0.141310,1.786394,0.004969,-0.002716,0.174549,0.071817,0.015136,0.016355,-0.163567,0.209453,0.063434,-0.094611,-0.000497,-0.102261
0.145833,0.015421,0.092379,1.404641,0.004381,-0.000667,-0.019627,0.077282,0.009790,0.041060,-0.148673,0.048806,-0.020028,-0.303009,-0.013967,-0.729988
0.146667,0.031153,-0.086602,0.599795,0.013533,-0.051391,-0.080200,0.140600,0.025148,0.016518,-0.076444,-0.010684,-0.031597,-0.257069,-0.019505,0.198063
0.147500,0.047790,-0.105799,-0.364056,0.013505,-0.084388,-0.089912,0.193612,0.008263,-0.001858,0.001526,-0.016331,-0.068008,-0.306176,-0.012075,1.862132
0.148333,0.026125,0.074261,-1.206533,-0.004704,-0.063643,-0.098399,0.261082,0.012533,-0.014504,0.032879,-0.048417,-0.070963,-0.169958,0.001154,2.156904
0.149167,-0.009418,0.355572,-1.501351,0.017809,-0.001357,-0.050633,0.335433,0.015210,-0.006902,0.088701,-0.084847,-0.081189,-0.144789,0.014078,2.024157
0.150000,-0.059439,0.162837,-1.573695,-0.005626,0.015501,-0.037459,0.074623,0.019327,-0.001771,0.015009,0.041729,-0.081885,0.586122,0.019377,1.370202
0.150833,-0.037405,-0.103447,-1.819244,-0.000541,0.032865,-0.035287,-0.516243,0.019671,-0.014503,0.066297,0.101019,-0.058685,0.455270,0.005759,0.904505
0.151667,-0.087036,-0.112518,-1.677237,-0.004319,0.052270,-0.024952,-0.821080,0.004617,-0.027688,0.000690,0.000054,-0.092589,0.104204,-0.011516,0.663720
0.152500,-0.067319,0.192936,-1.082928,-0.008869,0.029163,-0.032145,-0.254912,-0.009388,-0.031850,0.022940,-0.115180,-0.059358,-0.179487,-0.015813,-0.386823
0.153333,-0.036671,-0.096575,-0.687530,0.003512,0.016651,-0.006568,-0.018935,0.005087,-0.002716,-0.025058,-0.056273,-0.077981,-0.073684,-0.004537,-1.095831
0.154167,-0.028633,-0.001063,-0.812967,-0.007759,0.011837,0.012514,-0.370262,-0.001892,-0.015960,-0.004470,-0.050464,-0.024064,0.103519,0.010715,-1.118117
0.155000,-0.016166,0.157568,-0.467697,-0.005142,-0.002975,-0.000272,-0.292181,-0.003357,-0.066991,0.036007,-0.047420,0.001717,0.198714,0.011329,-0.479520
0.155833,0.015106,-0.090153,0.814531,-0.005418,-0.024888,-0.003304,0.080310,-0.014603,-0.043500,0.071332,-0.128947,0.008702,-0.286005,0.000204,0.534214
0.156667,0.000823,-0.070985,0.814467,-0.002020,-0.038492,0.005681,0.096329,-0.031548,0.002792,0.064865,-0.230511,0.068024,-0.342765,-0.005721,0.732310
0.157500,0.019602,0.259178,0.259858,-0.002269,-0.030056,-0.012245,0.341274,-0.007077,0.016196,-0.015144,-0.132535,0.048783,-0.526157,-0.003700,0.820380
0.158333,0.016543,0.105955,-0.392487,-0.018823,0.001022,0.009135,0.474502,-0.018585,0.024027,-0.100803,-0.022085,0.103276,-0.156453,-0.013570,0.835001
0.159167,0.019143,-0.051704,-0.844999,0.004779,0.014758,-0.022950,0.186192,-0.022612,0.033762,-0.240795,0.012200,0.104554,0.321381,-0.003897,0.646530
0.160000,0.015832,-0.025546,-0.660736,0.003540,0.023806,-0.033106,-0.037724,-0.011096,0.046315,-0.061280,-0.029048,0.111818,-0.184880,0.011431,0.247229
0.160833,0.026927,-0.090280,-0.509914,-0.004684,0.027543,-0.044962,-0.371415,-0.012284,0.108988,0.016756,-0.055776,0.110555,-0.284077,0.018682,-0.492990
0.161667,-0.028271,0.171358,-0.194471,0.005135,0.021377,-0.017591,-0.486892,0.004785,0.066748,0.098910,0.180303,0.060458,-0.306545,0.009613,-0.757810
0.162500,0.036559,-0.012649,0.218287,-0.005147,0.008498,-0.045098,-0.421772,-0.012084,0.084541,0.060378,0.306292,0.072118,-0.029180,-0.000822,-0.657798
0.163333,0.027942,-0.240921,1.003311,0.006740,-0.003025,-0.050531,-0.258860,-0.016354,0.088816,0.137687,0.138194,0.002974,0.024489,-0.015525,-0.642317
0.164167,0.016222,-0.037468,0.721649,0.014397,0.006322,-0.030782,0.156453,0.004183,0.000078,0.094041,0.039497,0.005107,0.129406,-0.012830,-1.264683
0.165000,0.020312,-0.009986,0.191226,0.003024,0.029350,-0.007462,0.423945,0.006504,-0.020078,0.051534,-0.010686,-0.019197,0.303524,0.002073,-2.045836
0.165833,0.039437,-0.099510,1.476241,0.008021,0.055360,0.024833,0.385069,0.008015,0.031105,-0.066407,0.007952,-0.102040,0.168179,0.013923,-2.280171
0.166667,0.049162,0.219994,2.468744,0.011989,0.054734,0.012606,0.558286,0.002932,-0.066694,-0.198108,0.122732,-0.073499,0.243860,0.012189,-2.584177
0.167500,-0.000433,0.122636,1.881303,0.004090,0.046074,0.015579,0.996191,-0.012844,-0.134159,-0.139067,0.074561,-0.023509,0.377479,0.005111,-3.611695
0.168333,-0.005314,-0.090608,0.606134,0.002021,-0.002521,0.028317,1.094010,0.020675,-0.126705,-0.060153,-0.027615,-0.066719,0.316558,-0.015861,-3.144396
0.169167,-0.049287,-0.063823,-0.302650,-0.005515,-0.046808,0.049805,1.534173,0.003416,-0.105017,-0.049527,-0.051662,-0.084008,0.463617,-0.006780,-1.749502
0.170000,-0.036260,-0.079971,-1.203226,0.003751,-0.048490,0.056285,0.750448,-0.002795,-0.078356,-0.057566,-0.063358,-0.047503,0.343283,-0.019530,0.290826
0.170833,-0.036463,-0.127053,-1.943656,0.004179,-0.041439,0.078011,-1.630487,-0.000220,-0.028199,0.016166,-0.080721,-0.011712,0.118859,0.010892,2.397280
0.171667,0.030628,0.057336,-2.008775,0.003085,-0.055400,0.051077,-2.627595,-0.012481,0.003557,0.037112,-0.141610,-0.004742,0.080247,0.010633,3.037668
0.172500,0.050684,0.196980,-1.578609,0.011906,-0.082119,0.058056,-1.508812,0.010652,0.018659,0.142779,-0.237192,0.051356,-0.117763,0.009904,3.315275
0.173333,0.075085,-0.158888,-0.756571,-0.008581,-0.110591,0.017022,-0.066602,-0.002204,-0.042633,0.111167,-0.224055,-0.002729,-0.104019,-0.006247,2.408236
0.174167,-0.014766,0.080877,-0.098031,-0.001925,-0.092419,0.008696,-0.082108,-0.016844,-0.126994,0.039794,-0.015702,-0.002819,-0.055486,-0.015087,1.268373
0.175000,-0.046024,0.069262,-0.020438,-0.029473,-0.060383,-0.019112,-0.056868,0.006279,-0.229010,0.074078,0.168881,-0.027642,-0.310279,-0.024852,2.396716
0.175833,0.005696,-0.273217,-0.207492,0.001085,-0.023453,-0.016213,-0.147505,0.008744,-0.094559,-0.002507,0.038834,-0.024085,-0.078129,-0.001516,3.774594
0.176667,-0.027936,-0.099980,-0.373777,0.012230,0.010011,-0.025506,-0.111133,0.005679,0.167009,0.000610,-0.032946,-0.031343,0.021172,0.011435,4.437683
0.177500,-0.030210,0.129414,-0.326597,0.002281,0.034397,-0.023517,0.190335,0.005796,0.062726,0.049994,0.125780,-0.018872,-0.274943,0.024225,4.659908
0.178333,-0.079263,-0.147737,-0.174434,-0.013658,0.063924,-0.011348,0.968403,0.007736,0.061523,0.109761,0.107874,0.029382,-0.275042,0.008780,3.776498
0.179167,-0.016256,-0.122667,-0.004407,-0.004306,0.068866,-0.030691,0.712779,0.028750,0.120991,0.014170,0.125240,-0.009227,-0.251707,0.003858,1.359758
0.180000,0.000579,0.166232,0.338950,-0.034513,0.091356,-0.026348,0.266561,0.013455,0.144223,-0.011595,0.350107,0.008161,0.298570,-0.007629,-1.430509
0.180833,-0.007690,0.271934,0.818943,0.002993,0.098145,-0.027199,0.290801,0.015561,0.169639,-0.061719,0.455286,0.008190,-0.177237,-0.014084,-3.640362
0.181667,-0.037080,0.119890,1.306495,0.007966,0.076270,-0.021689,-0.328200,0.013705,0.097998,-0.005167,0.173549,-0.010017,-0.330655,-0.008182,-4.841669
0.182500,0.005818,-0.135264,1.255867,-0.008908,0.038239,-0.029392,-0.179431,-0.000816,0.114617,-0.025694,-0.184171,0.027428,-0.306086,0.007179,-4.808711
0.183333,0.007201,-0.057216,1.176066,0.001204,0.000675,-0.015865,-0.073264,0.008000,0.153018,-0.018662,-0.332267,-0.007461,-0.303737,0.024065,-4.719979
0.184167,0.032564,0.139560,1.162940,-0.010216,-0.010959,-0.035470,-0.499352,0.000468,0.164406,-0.064976,-0.336077,0.018247,-0.103853,0.002651,-3.937661
0.185000,-0.002892,-0.032242,0.893859,0.007348,0.006669,0.009107,-0.343057,-0.022510,0.109581,-0.072500,-0.329597,0.070704,-0.198770,-0.003505,-3.398249
0.185833,-0.001622,-0.071774,0.445572,0.003546,0.041469,0.027954,-0.107048,-0.005102,0.100852,-0.104125,-0.319858,0.055932,-0.044417,-0.007066,-2.060093
0.186667,-0.051321,0.055046,0.126876,0.008903,0.041373,0.076731,0.167406,-0.011107,-0.147581,-0.104478,-0.293739,0.007819,0.093675,-0.016273,-1.303161
0.187500,0.011323,-0.125829,-0.187589,0.015186,0.023428,0.051648,0.502632,-0.005599,-0.272110,0.022408,-0.163491,-0.013510,0.733683,0.003664,-0.682959
0.188333,-0.000870,-0.086707,-0.379186,0.005003,-0.004475,0.045603,0.587517,-0.016215,-0.151124,0.009958,0.359298,-0.021637,0.471952,0.018872,0.623475
0.189167,-0.002410,0.156271,-0.279797,0.008572,-0.006673,0.008523,0.090924,-0.007876,0.051805,0.018239,0.534911,0.012270,-0.016157,0.011649,1.229966
0.190000,-0.010808,-0.126696,0.052796,-0.000197,0.003822,-0.009715,-0.375483,0.003531,0.019616,-0.021712,0.262376,0.096135,0.119887,-0.001067,0.808639
0.190833,0.023563,-0.164715,0.261257,-0.006805,0.011562,-0.033541,-0.246163,-0.004134,-0.049294,0.032025,0.097616,0.046377,0.099141,-0.011950,1.423667
0.191667,0.051903,0.184438,0.159471,0.012703,-0.029719,-0.024971,-0.092237,-0.009524,-0.093225,0.022299,-0.002347,0.053100,-0.046662,-0.036414,1.984584
0.192500,0.003280,0.189107,-0.211105,0.011484,-0.070606,-0.023989,-0.196476,-0.002581,-0.166422,0.038241,-0.105054,-0.003348,0.016169,-0.017999,1.839749
0.193333,0.039911,0.094649,-0.807843,0.006931,-0.109131,-0.007095,-0.009928,-0.021616,-0.161052,0.040045,-0.165127,0.000150,0.207338,0.011405,1.689604
0.194167,0.036835,-0.108866,-1.117386,0.003465,-0.128516,0.008626,0.199979,0.009198,-0.112231,0.024834,-0.243081,0.042972,0.257937,0.018685,2.255535
0.195000,0.019075,0.100697,-0.961748,0.004594,-0.103122,-0.017708,0.306015,0.004860,-0.069082,0.040084,-0.153765,-0.020319,-0.285436,0.013151,2.837695
0.195833,0.005699,0.129136,-0.227272,-0.008151,-0.065892,-0.031454,0.334885,-0.012509,-0.020890,-0.006349,-0.054586,-0.072245,-0.189038,0.013571,2.403850
0.196667,0.038806,-0.222861,0.530222,-0.001205,-0.037557,-0.052884,0.093851,0.006675,0.040196,0.010676,0.061383,-0.074059,-0.166007,-0.013623,2.032048
0.197500,0.023770,0.057245,0.514836,-0.009820,-0.018387,-0.040928,0.096949,-0.003508,0.024849,-0.032573,0.270495,-0.051552,0.451572,-0.010447,1.316530
0.198333,0.024343,0.092795,0.032929,-0.001500,0.010881,-0.031720,0.070852,0.005615,0.057238,-0.013402,0.311270,-0.081473,-0.310300,0.000210,0.237008
0.199167,-0.025120,-0.202918,-0.601089,-0.016687,0.039764,-0.008594,0.032149,0.003982,0.093860,-0.041053,0.125164,-0.059438,-0.115641,0.005531,-0.183683
0.200000,-0.019220,-0.078290,-0.954760,0.000311,0.042980,-0.022178,0.111878,-0.013135,0.058420,-0.010537,-0.053404,-0.080034,-0.090238,0.011621,0.840886
0.200833,-0.021169,0.201291,-1.151219,-0.003307,0.043011,0.008283,0.143855,0.017434,0.045387,0.000636,-0.141387,-0.057173,0.300112,0.012374,0.716405
0.201667,-0.030706,0.051985,-1.404491,0.004806,0.045549,0.030486,0.005255,0.009021,0.031746,0.086921,-0.109457,0.029168,-0.203758,-0.001975,-1.352672
0.202500,-0.071375,-0.228084,-1.549939,0.007099,0.047284,0.049649,-0.151445,0.010914,-0.004290,0.116480,-0.057841,0.002485,-0.238495,-0.013573,-2.470511
0.203333,-0.030917,-0.013186,-1.545453,-0.002685,0.053752,0.056495,-0.276109,0.002820,-0.042543,0.128373,-0.064036,0.012053,-0.160572,-0.018607,-2.070234
0.204167,-0.003371,0.005277,-1.052719,0.001546,0.046831,0.058069,-0.566507,0.005494,-0.062684,0.042945,-0.068522,0.023282,0.117109,-0.003497,-0.940633
0.205000,-0.024483,-0.186294,-0.175255,-0.025983,0.054320,0.034100,-0.751145,0.022600,-0.043318,-0.057566,-0.039865,0.009365,0.222654,0.006578,-1.191965
0.205833,0.014042,0.154269,0.445469,0.009486,0.036872,0.028856,-0.043177,0.006534,0.129407,-0.144478,0.044818,-0.010730,0.167466,0.015587,-2.412412
0.206667,0.054337,-0.046958,0.967086,-0.009080,0.001671,0.033804,0.539803,-0.008826,0.269038,-0.104883,0.019803,-0.052525,-0.199559,0.014524,-2.836862
0.207500,0.094387,-0.031315,1.555120,-0.008893,-0.010539,0.012637,0.283000,0.009176,0.078789,0.002164,-0.081671,0.004261,-0.131550,-0.003173,-3.466680
0.208333,0.038948,0.180596,1.878028,-0.007191,0.004204,0.022428,0.509961,-0.008119,-0.127953,-0.044135,-0.050283,-0.003459,0.009505,-0.013852,-2.929616
0.209167,-0.000307,-0.111147,1.527075,0.008085,-0.003094,0.003514,0.483289,0.000328,-0.413185,-0.040686,-0.070709,0.026573,0.484785,-0.012328,-2.473164
0.210000,-0.068866,-0.044263,0.934150,-0.008380,-0.016433,-0.003978,-0.385728,-0.005609,-0.625767,-0.025328,-0.040457,0.076671,-0.185709,0.008572,-1.580733
0.210833,-0.024527,0.110253,1.048814,0.008881,-0.023636,-0.022484,-0.818215,-0.023328,-0.498931,0.024526,0.282112,0.041551,-0.121691,0.011767,-0.265317
0.211667,-0.030714,-0.085821,1.868763,-0.011235,-0.001543,-0.009440,-0.368679,-0.004607,-0.348977,-0.032413,0.188158,0.104309,-0.193878,0.008091,0.730298
0.212500,-0.026693,-0.153812,2.804501,0.012912,0.027377,-0.068616,0.093422,-0.003452,0.054783,-0.020966,0.079217,0.139802,0.233668,-0.014511,1.557529
0.213333,-0.012604,0.151954,3.029357,0.018459,0.032716,-0.043923,-0.072298,-0.020620,0.660709,0.003793,0.369790,0.058429,0.105297,-0.012704,2.458011
0.214167,0.019049,0.153992,1.518317,0.011514,0.021447,-0.045999,-0.387569,-0.005900,0.901374,-0.011379,0.270147,0.059272,0.037725,-0.006324,3.181612
0.215000,0.029230,-0.016008,-0.070538,0.012983,0.006496,-0.066307,-0.869861,-0.037255,0.593524,0.067348,-0.041880,0.081547,-0.209562,-0.007272,3.287807
0.215833,0.042083,-0.059432,-1.511081,0.006236,-0.008979,-0.045958,-0.135422,0.007241,0.297268,0.040553,-0.195438,0.031656,0.173186,0.005357,3.035902
0.216667,0.019499,-0.064626,-2.520488,0.012332,-0.010980,-0.015477,0.399808,0.002935,0.391408,0.041454,-0.280940,-0.039046,0.453981,0.017983,2.841393
0.217500,-0.043663,0.191796,-2.755227,-0.018779,-0.025641,0.001170,0.178787,0.000646,0.641154,-0.002575,-0.245972,-0.051437,-0.133336,0.020231,2.454051
0.218333,-0.060072,0.021657,-2.209860,0.009338,-0.014542,0.020152,0.111103,0.012741,0.452807,0.007655,-0.218774,-0.049078,-0.161770,0.003710,2.000452
0.219167,-0.083383,-0.077307,-1.909809,-0.006467,-0.024863,0.029558,0.031013,0.001386,-0.067732,-0.000487,-0.232052,-0.106350,-0.125399,-0.019829,2.425072
0.220000,-0.061966,0.057096,-2.354410,-0.009433,-0.061659,0.057763,0.139674,0.015568,-0.334063,0.029611,-0.148671,-0.082788,-0.252632,-0.032839,1.845073
0.220833,-0.064121,-0.111032,-1.724813,0.001504,-0.052007,0.075767,0.301863,0.024620,-0.451311,0.052778,0.113434,-0.070924,-0.143817,-0.005410,1.487023
0.221667,-0.070104,0.051234,-0.541529,-0.000970,-0.020634,0.044345,0.369298,0.016031,-0.545330,0.007974,0.176290,-0.109107,-0.357391,0.009206,0.470647
0.222500,-0.005550,0.254731,0.495561,-0.020826,-0.017127,0.043750,0.325279,0.019099,-0.562345,0.010242,0.125806,-0.079439,-0.151429,0.019859,-1.281432
0.223333,0.043992,-0.044373,0.999027,0.000070,-0.015081,0.017973,0.268210,0.007273,-0.429164,-0.074859,0.246877,-0.109669,0.178402,0.013886,-2.766011
0.224167,-0.023665,-0.192398,0.467660,0.009071,-0.020733,0.011557,0.230160,-0.013349,-0.258243,-0.052029,0.055675,-0.039912,0.120379,0.007462,-3.524793
0.225000,-0.003250,0.124070,0.300473,-0.002064,-0.007663,0.003437,0.191065,0.018113,-0.201504,-0.042436,-0.180124,0.095483,0.162533,-0.005974,-3.622133
0.225833,0.207348,-0.144926,-0.429870,-0.000839,0.005848,-0.010365,0.100543,0.005672,-0.171097,0.002580,-0.150261,0.118896,0.072223,-0.011010,-3.262460
0.226667,0.213863,-0.131917,-1.185732,-0.005564,-0.005953,-0.029553,-0.091426,0.004863,0.057149,0.047755,-0.093477,0.117308,-0.005543,-0.001084,-2.390253
0.227500,0.204140,0.113973,-0.742574,-0.006630,0.005800,-0.036739,-0.020671,0.002861,0.184242,0.024713,-0.068763,0.127350,-0.005563,0.005493,-1.827726
0.228333,0.119128,-0.082897,0.212734,-0.011363,0.037331,-0.042457,0.308555,-0.031319,0.087327,0.037656,0.000094,0.048031,0.047173,0.010246,-1.687696
0.229167,0.008710,-0.108647,1.245292,0.006175,0.031157,-0.049152,0.726690,0.003632,-0.113785,-0.019330,0.115304,-0.032426,0.155284,0.010431,-0.423414
0.230000,-0.088987,-0.086998,2.118569,0.002647,0.036451,-0.037905,0.524272,-0.010551,-0.220050,0.014416,0.140984,-0.024569,0.347623,-0.002042,0.422289
0.230833,-0.130966,0.206234,2.255007,0.004907,0.018767,-0.013748,0.279810,-0.015739,-0.461005,-0.031714,0.186313,-0.009990,0.012465,-0.030072,0.425364
0.231667,-0.081558,0.134486,1.723671,0.013259,-0.011788,-0.005670,-0.268339,-0.010416,-0.430638,0.015609,0.111898,-0.075770,-0.053542,-0.015980,0.276873
0.232500,-0.095073,0.003277,1.368926,0.006492,-0.033665,-0.013054,-0.966003,-0.003741,-0.135674,0.001801,0.014400,-0.092156,-0.086175,-0.002950,0.734680
0.233333,-0.106711,-0.121283,1.203969,-0.010209,-0.010826,-0.029637,-0.756244,0.006874,0.044704,0.044043,-0.076359,-0.066264,-0.067313,0.011460,1.047934
0.234167,-0.112862,-0.175218,0.540689,0.000692,0.044698,-0.036947,-0.148254,-0.009702,0.466314,0.052760,-0.143227,-0.099048,-0.083678,0.014433,0.998210
0.235000,-0.013179,-0.092114,-0.086325,-0.005362,0.043205,-0.013459,0.097255,-0.015935,0.576296,0.064114,-0.265795,-0.079516,-0.051866,0.008561,0.364645
0.235833,-0.046363,0.217789,-0.527558,0.003822,0.041774,0.015201,0.589292,0.015641,0.428755,-0.042285,-0.230086,0.013296,-0.075553,-0.004171,0.125071
0.236667,-0.009836,-0.021687,-0.444818,0.009324,0.035527,0.086578,1.162133,0.008123,0.549561,-0.159010,-0.024308,0.046694,-0.009707,-0.011863,0.440747
0.237500,0.007845,-0.220305,-0.111369,0.005647,-0.003915,0.090666,1.128178,-0.009647,0.428772,-0.120646,0.080882,0.036295,0.022297,-0.011921,1.215559
0.238333,0.039276,0.111005,-0.430195,0.011865,-0.013999,0.087894,-0.512845,-0.007757,0.097319,-0.078703,0.271211,0.078432,0.016099,-0.000073,2.025340
0.239167,0.059683,0.054745,-0.329131,0.000358,-0.012130,0.048971,-1.791553,-0.012754,-0.047245,-0.066275,0.460173,0.052142,0.048819,0.016355,1.640699
0.240000,0.067486,-0.071235,0.187108,-0.005376,-0.048832,0.057975,-1.512042,0.015959,0.044676,0.015683,0.218545,0.050538,-0.085478,0.022258,0.380978
0.240833,0.072244,0.034116,0.012556,-0.006101,-0.019449,-0.000600,-1.248031,0.001484,0.234187,0.111496,-0.039097,0.075626,-0.064918,0.003748,-0.477807
0.241667,0.111598,0.353236,-0.892310,-0.007920,0.025030,-0.041001,-0.616340,-0.006427,-0.042764,0.031668,-0.165675,0.021982,0.427791,-0.014610,-0.683574
0.242500,0.203201,0.018182,-1.014707,0.007937,0.016523,-0.045832,-0.429468,0.014359,-0.459461,0.048130,-0.385978,0.053794,0.279287,-0.014505,-0.203884
0.243333,0.079070,-0.020918,-1.192558,-0.003849,0.003373,-0.048816,-1.377758,0.016242,-0.301039,-0.057152,-0.272946,0.041507,-0.235695,-0.009063,0.298591
0.244167,-0.004938,0.216205,-1.765687,-0.005738,0.002333,-0.040645,-0.869461,-0.000006,-0.076872,-0.052686,0.034375,-0.002993,-0.296448,0.003242,0.457270
0.245000,0.008220,-0.149714,-1.946804,0.000441,0.010778,-0.035205,0.174048,-0.009810,0.033390,0.036055,0.087480,0.027538,-0.009381,0.019356,-0.327654
0.245833,0.072754,-0.164607,-1.660571,-0.015825,-0.005045,-0.023796,0.043140,-0.013775,0.128709,0.051911,0.185388,0.008557,0.403452,0.017458,-1.029784
0.246667,0.111148,0.146737,-1.013297,-0.001128,-0.017087,-0.039680,0.131198,0.014351,0.274020,0.082165,0.186440,0.023644,-0.217030,-0.014966,-1.822140
0.247500,-0.085323,-0.149746,-0.602449,-0.008409,-0.009815,-0.028226,0.994769,-0.013928,0.274098,0.070507,-0.085206,-0.013457,-0.195876,-0.011237,-1.838237
0.248333,-0.365265,-0.162864,0.024907,-0.001196,0.009881,-0.035055,1.666121,-0.003545,0.354568,0.075526,-0.167427,-0.020085,-0.209497,-0.009045,-0.977505
0.249167,-0.288873,0.207402,0.709032,0.002511,0.018176,-0.029643,1.702779,-0.000121,0.397905,0.149089,-0.143904,0.015617,-0.324083,0.001070,-0.068265
0.250000,-0.262428,0.228100,1.008887,0.001194,-0.000209,-0.021141,1.298412,0.006415,-0.246986,0.245557,-0.001886,-0.031669,-0.073885,0.020327,0.989118
0.250833,-0.307826,0.058923,0.974344,0.006758,-0.026366,-0.000693,0.848299,0.004314,-0.801116,0.084459,0.262376,-0.028924,0.119264,0.015308,1.173869
0.251667,-0.172598,-0.097406,1.241658,-0.006882,-0.040775,0.021787,0.735016,-0.000475,-0.855329,-0.049037,0.256365,-0.016007,0.593127,-0.002083,0.877027
0.252500,0.099260,-0.093995,1.498702,0.001325,-0.043594,0.047367,0.679223,0.012185,-0.707365,-0.241462,0.157942,-0.027430,0.355992,-0.023915,0.518796
0.253333,0.168960,0.065602,1.711290,-0.009968,-0.048403,0.069945,0.714383,0.024285,-0.584734,-0.336581,0.069897,0.015069,-0.037363,-0.008833,0.478529
0.254167,0.164634,-0.219230,1.391631,0.015701,-0.021783,0.105083,0.626008,-0.004466,-0.262327,-0.421226,-0.042601,-0.065981,-0.112556,-0.018637,-0.098365
0.255000,0.188017,-0.214560,0.760118,-0.007267,0.005908,0.059084,-0.349222,-0.008769,0.232473,-0.186259,-0.107719,-0.071298,-0.118305,-0.001903,-1.616155
0.255833,0.159261,0.068778,0.071958,0.025043,0.013929,0.043789,-1.270935,0.000075,0.570493,0.098089,-0.142417,-0.036121,-0.184911,0.013294,-1.226379
0.256667,0.039098,-0.094452,-0.232404,-0.005318,0.010534,0.017224,-0.946473,-0.000070,0.134199,0.226894,-0.233833,-0.074106,-0.041510,0.013681,0.468715
0.257500,0.014230,-0.213652,-0.052934,-0.003440,0.023205,-0.003685,-0.667969,0.015655,-0.060472,0.225649,-0.236852,-0.098405,-0.042228,0.006276,1.371545
0.258333,0.118606,0.082774,-0.083498,0.013585,0.025713,-0.023532,-0.571741,-0.001895,0.212785,0.077581,-0.047389,-0.081055,-0.244408,-0.007696,1.544610
0.259167,0.136522,0.252280,-0.170920,-0.001547,0.027080,-0.018984,-0.254418,-0.015654,0.283979,0.041800,0.068472,-0.069169,-0.101443,-0.009161,1.087423
0.260000,0.070918,0.088942,-0.134818,0.013110,0.020917,-0.033697,-0.283233,-0.000458,0.330129,0.045995,0.088349,-0.049424,-0.137290,-0.001169,0.453110
0.260833,-0.009522,-0.081998,0.118123,0.006742,0.019906,-0.019010,-0.443069,0.001109,0.267012,0.011297,0.065398,0.034376,-0.169124,0.012620,0.409070
0.261667,-0.084808,-0.168899,0.283203,-0.004484,0.016590,-0.007130,-0.593535,-0.006695,0.169083,-0.093707,-0.111244,0.057610,0.067195,0.009777,0.479555
0.262500,-0.062948,0.158991,-0.159319,0.000637,0.004423,-0.033773,-0.497287,-0.000381,0.132442,0.027478,-0.284492,0.050075,-0.055931,0.010597,0.526942
0.263333,-0.032631,0.061466,-0.401239,-0.006740,0.003410,-0.068734,-0.147174,-0.003764,0.062430,0.033685,-0.209666,0.106865,-0.180712,0.001653,-0.123320
0.264167,-0.012985,-0.189462,-0.472205,-0.005720,-0.007491,-0.058306,0.421311,0.019463,-0.021346,-0.000910,0.039917,0.094185,-0.043533,-0.005913,-0.972178
0.265000,0.012553,0.154138,0.391913,-0.004242,0.004538,-0.059252,0.610771,-0.001355,-0.054753,-0.142058,0.027170,0.094294,0.535420,-0.023393,-1.358139
0.265833,0.009873,0.017991,0.756039,-0.008113,-0.000928,-0.059973,0.395175,-0.010835,-0.071185,-0.163761,-0.133242,0.093157,0.372245,-0.011266,-0.950723
0.266667,0.009091,-0.175144,0.019203,-0.005436,-0.008469,-0.010262,-0.004993,0.003227,-0.050963,-0.051053,-0.072761,0.061312,0.188367,0.007123,-0.049040
0.267500,-0.015076,0.201952,-0.860812,-0.000949,-0.024790,0.055709,-0.248472,0.006344,-0.018069,0.128783,0.312423,0.064958,-0.044344,0.017127,-0.102118
0.268333,-0.112791,0.124729,-1.419911,0.007328,-0.028677,0.058908,-0.140106,0.004621,0.002273,0.085988,0.429536,0.008233,0.004371,0.006538,-0.334386
0.269167,-0.077263,-0.146435,-1.403738,0.008099,-0.023636,0.063740,0.256395,-0.007585,-0.007855,0.012520,0.276609,0.022009,0.222836,-0.005265,-0.067151
0.270000,-0.017411,-0.199044,-1.635414,0.012193,-0.003102,0.024591,0.229499,-0.003108,0.016162,0.051655,0.256316,0.005975,0.496282,-0.013551,-0.078910
0.270833,0.070764,-0.020546,-1.658706,0.007707,0.013698,0.003728,-0.140637,-0.004981,-0.038074,0.024095,0.334604,-0.033683,-0.032888,-0.007486,-0.580209
0.271667,0.061406,-0.026110,-1.309981,0.005167,0.010437,0.031069,-0.477933,-0.018076,-0.119094,0.036943,0.187187,-0.030969,-0.175034,-0.001109,-0.791895
0.272500,0.102259,0.020020,-1.190483,-0.004733,-0.012890,0.040554,-0.427167,-0.012321,-0.141252,0.002140,-0.038901,-0.067752,-0.113219,0.015194,-0.904525
0.273333,0.171851,0.344277,-0.873790,-0.006886,-0.021649,0.024562,-0.134178,-0.030732,-0.087424,0.021135,-0.128575,-0.036234,-0.235754,0.018533,-0.988121
0.274167,0.290685,0.081765,0.032187,-0.009682,-0.010354,0.006142,0.123538,0.015972,-0.079493,0.009216,-0.179872,-0.032783,0.119454,0.013792,-1.071257
0.275000,0.281979,-0.111276,0.811843,-0.008385,0.015646,0.002236,0.284877,0.001159,-0.197380,0.048752,-0.179595,-0.020095,0.503962,-0.008490,-0.970326
0.275833,-0.002190,0.151142,1.537609,-0.025573,0.023228,0.000033,0.204816,-0.011675,-0.183329,-0.014554,-0.190835,0.019762,-0.014681,-0.014593,-0.797716
0.276667,-0.209697,-0.062143,2.129972,-0.040641,0.035116,-0.012364,0.189230,-0.001456,-0.122755,0.018700,-0.207868,0.014088,-0.222151,-0.012755,-0.596077
0.277500,-0.270986,-0.174589,2.892163,-0.018484,0.072049,-0.031749,0.067752,-0.006617,0.033212,-0.013568,-0.070381,0.077571,-0.227042,-0.008013,-0.196133
0.278333,-0.243276,0.205552,3.843119,-0.011739,0.060771,-0.054455,-0.004685,0.015433,0.271798,0.044102,-0.002421,0.106102,-0.235581,-0.000826,0.852528
0.279167,-0.228620,0.140369,3.075086,0.008138,0.027205,-0.036383,0.110798,0.004894,0.283299,0.003996,-0.045526,0.035256,-0.241710,0.004688,1.971466
0.280000,-0.208045,-0.121988,1.879169,0.015672,-0.007909,-0.009877,0.121071,-0.004952,0.279714,-0.016262,-0.084050,0.017148,-0.172657,0.006697,2.673351
0.280833,-0.295146,0.164824,1.377299,0.021857,-0.029024,-0.008353,0.031119,0.015509,0.279875,-0.122437,-0.171094,-0.044656,-0.164350,-0.002124,3.035291
0.281667,-0.262007,0.034200,0.042717,0.025480,-0.046070,-0.008921,0.097498,0.014104,0.141032,-0.143798,-0.146273,-0.047750,-0.118604,-0.012619,3.622955
0.282500,-0.087292,-0.070400,-1.128352,0.025629,-0.065467,-0.008374,0.169458,0.013423,0.136251,-0.041901,-0.123842,-0.095701,-0.091612,-0.006326,2.872631
0.283333,0.098069,0.102081,-1.830137,0.020631,-0.061133,0.012973,0.049049,0.012404,0.241065,0.018000,-0.153198,-0.132605,-0.072997,0.000429,1.483049
0.284167,0.104562,-0.107937,-2.941800,0.007283,-0.044211,-0.011561,-0.063931,0.003115,0.157594,0.012256,-0.026613,-0.134885,-0.140842,0.012069,0.225247
0.285000,0.147192,0.039212,-2.681318,-0.009686,-0.040036,0.008966,-0.052285,0.012869,0.029872,-0.025859,0.224539,-0.145477,-0.074429,0.023865,-0.978042
0.285833,0.131360,-0.002193,-1.784944,0.008785,-0.006647,0.012145,-0.140966,0.009009,-0.306571,-0.013628,0.288587,-0.115137,0.148173,0.015826,-1.563743
0.286667,0.119328,-0.400046,-1.531121,-0.006582,0.027579,0.026049,0.079644,-0.003742,-0.606475,0.001667,0.088384,-0.106760,0.427158,-0.011133,-1.149779
0.287500,0.099944,-0.280655,-0.638552,0.011651,0.033502,0.046402,0.376728,0.003294,-0.321663,0.067198,-0.057709,-0.098241,0.057125,-0.010626,-1.705162
0.288333,0.089817,0.032942,0.294342,0.004577,0.021200,0.039170,0.514840,-0.002395,-0.176200,0.027962,-0.047556,0.009283,0.049912,-0.009052,-3.300614
0.289167,0.133610,-0.099043,0.303614,-0.006603,0.033712,0.008772,0.288875,0.004050,-0.256453,0.030470,-0.103894,0.036052,-0.153060,-0.001683,-4.343003
0.290000,0.099569,-0.156101,0.096345,-0.007402,0.041450,0.032104,-0.468150,0.002472,-0.111346,-0.064105,0.196744,0.061701,0.247826,0.006446,-3.577663
0.290833,0.089986,0.156616,0.287342,-0.008511,0.034200,0.001126,-0.423591,0.001401,-0.165322,0.004579,0.351602,0.124050,0.649148,0.010296,-1.120220
0.291667,0.041106,0.089355,-0.194669,-0.010400,0.002977,-0.013523,-0.053744,-0.010928,-0.177369,0.005227,0.163694,0.090615,-0.094354,-0.003712,0.538639
0.292500,0.052571,-0.101307,-0.702377,0.009048,-0.009024,-0.021314,0.183568,-0.013169,-0.213008,0.047878,0.186908,0.105694,-0.009042,-0.006284,1.468129
0.293333,0.014490,-0.008333,-1.006449,-0.008314,-0.005448,-0.043617,0.324607,0.009616,-0.246049,0.007736,0.222556,0.158843,-0.121309,-0.013595,1.348773
0.294167,0.012562,0.222341,-1.274199,0.004032,-0.013591,-0.006742,-0.014570,-0.004692,-0.161192,0.034508,-0.000694,0.107753,-0.099213,0.000446,1.506986
0.295000,0.022296,-0.045483,-1.061509,-0.003361,-0.010397,-0.021015,-0.445484,-0.022690,-0.014660,-0.033840,-0.213105,0.099251,0.123523,0.010663,1.559330
0.295833,-0.036976,-0.037482,-0.841452,0.002766,0.008577,-0.003893,-0.582527,-0.013108,0.196814,0.048060,-0.218495,0.081313,-0.076370,0.015375,0.728274
0.296667,0.031468,0.180820,-0.266252,0.000128,0.018019,-0.000851,-0.054400,0.011682,0.238883,0.017764,-0.145848,0.029205,-0.205382,-0.000522,0.063837
0.297500,0.115040,-0.035334,0.990258,-0.006549,-0.014252,-0.001058,-0.041131,-0.004327,0.201261,0.035182,-0.062199,0.051988,-0.237846,-0.009411,1.412854
0.298333,0.149971,0.133219,1.946414,0.010811,-0.068229,-0.029539,-0.815428,-0.000716,0.762752,0.030121,-0.080812,0.022338,-0.146276,-0.018768,1.746675
0.299167,0.142678,0.152634,2.100255,-0.002726,-0.113534,-0.032276,-0.589109,-0.003583,0.909453,-0.012076,-0.092171,0.019364,-0.036257,-0.015317,0.931195
0.300000,0.031223,-0.133752,1.930899,-0.006109,-0.073859,-0.039480,-0.028799,-0.001789,0.475032,0.005166,-0.048090,0.015345,-0.178644,0.001705,0.512750
0.300833,-0.081532,0.082962,1.531941,-0.003151,0.008540,-0.010404,0.315634,-0.006778,0.069010,-0.036728,-0.029773,-0.060791,-0.137678,0.011548,0.347446
0.301667,-0.159547,0.007505,1.114959,-0.005440,0.050815,0.031761,0.724421,-0.017937,-0.146077,-0.001058,-0.029454,-0.061927,-0.145653,0.019401,-0.051356
0.302500,-0.155777,-0.140701,1.084911,-0.005950,0.052055,0.047350,0.959316,0.014940,-0.094713,-0.046074,-0.018300,0.018057,-0.036941,-0.000064,-0.400804
0.303333,-0.208403,0.166286,0.898949,-0.008942,0.044914,0.049186,0.474311,0.001375,0.202899,0.008255,-0.031099,-0.026821,0.047352,-0.000460,-0.402952
0.304167,-0.245768,-0.019130,0.604182,-0.019440,0.058989,0.038343,-0.505268,-0.024292,0.120751,-0.020584,-0.018096,-0.089737,0.198937,-0.000399,-0.802644
0.305000,-0.286526,-0.061153,0.437951,-0.021256,0.061157,0.031918,-0.775854,-0.007884,-0.123380,0.018604,0.006691,-0.046010,0.156246,-0.000645,-1.765655
0.305833,-0.252103,0.266610,0.464852,-0.011630,0.038435,0.015116,-0.071081,-0.017750,-0.198816,-0.021599,0.015516,0.003829,0.302204,-0.007145,-2.923399
0.306667,-0.081753,-0.034282,0.542751,0.004419,-0.001113,0.000607,0.210825,0.016921,-0.214185,0.014277,0.032519,-0.038451,0.161848,-0.000673,-2.660973
0.307500,-0.016680,-0.050954,0.074264,-0.007733,-0.006091,-0.033574,0.463921,0.016487,-0.263760,-0.044376,0.036676,-0.089489,0.302199,0.006412,-2.424087
0.308333,0.010931,0.230259,-0.871978,0.013117,-0.007656,-0.028372,0.310920,0.005371,-0.226808,-0.007596,0.001932,-0.061940,0.155749,0.014876,-1.441272
0.309167,0.078979,-0.205264,-1.578349,0.016629,-0.008743,-0.043596,-0.235475,0.015777,-0.200769,0.017795,-0.048636,-0.002871,0.121602,-0.002899,-0.148511
0.310000,0.183591,-0.005353,-2.005430,0.012427,-0.015340,-0.013779,-0.217447,0.015976,-0.191955,0.013329,-0.039618,0.007404,0.270617,-0.004950,0.506006
0.310833,0.210127,-0.003652,-1.654835,0.020359,-0.012382,0.016679,-0.028062,0.007956,-0.172309,0.035766,-0.063450,-0.033743,0.148728,-0.009129,1.637735
0.311667,0.155188,-0.177630,-1.177014,0.003049,-0.019745,0.009789,-0.066208,-0.000803,-0.167289,-0.013767,-0.002616,-0.071087,0.225163,-0.005821,2.434653
0.312500,0.032312,0.135516,-1.002225,0.003075,0.004185,-0.000112,0.051985,0.000995,-0.095191,0.027238,0.344627,-0.033060,0.088254,0.000090,2.454287
0.313333,0.033718,-0.214300,-0.950590,0.008691,0.033734,-0.030569,0.297312,0.020063,-0.077664,-0.012259,0.137986,-0.026909,-0.190266,0.004792,2.556481
0.314167,0.021110,-0.251292,-0.841883,0.001739,0.018051,-0.035343,0.358718,-0.004177,-0.060684,-0.000869,0.029323,-0.080366,-0.148942,-0.014146,1.954029
0.315000,0.015028,0.147979,-0.533203,0.011819,0.002268,-0.032439,0.046749,-0.005505,-0.030468,-0.071632,0.050065,-0.028127,-0.291270,-0.012625,2.420738
0.315833,-0.004283,-0.122280,-0.327879,0.009783,0.010618,-0.025060,-0.131959,-0.008186,0.003464,-0.011061,-0.039057,0.004753,-0.389815,-0.004530,2.583886
0.316667,0.105151,-0.226014,-0.202061,0.016374,0.030562,0.002052,-0.091616,0.020733,0.011790,-0.023753,-0.038781,-0.033382,-0.275856,0.010596,1.898919
0.317500,0.044765,0.098957,0.028665,0.015409,0.006237,0.031652,-0.082586,0.010292,0.026708,-0.004859,-0.026801,0.037604,-0.279444,0.014443,1.450380
0.318333,0.064840,0.239277,0.223706,0.003519,-0.011707,0.038710,0.000598,-0.025935,0.063811,-0.013099,-0.037937,0.057121,-0.233906,0.022269,0.416655
0.319167,0.018298,-0.012821,0.307149,0.007700,0.030591,0.069604,-0.030933,0.019770,0.060125,0.013808,-0.055743,0.067673,-0.144188,0.014389,-0.269515
0.320000,-0.010632,-0.102164,0.877169,-0.006089,0.011375,0.033689,-0.098560,-0.004119,0.071552,0.019584,-0.033409,0.097420,-0.296559,0.001787,-1.020960
0.320833,-0.030357,-0.174253,1.761749,-0.003683,-0.036835,0.002972,-0.075733,-0.006058,0.065346,-0.031606,0.009343,0.060385,-0.227277,-0.005923,-1.880170
0.321667,-0.042432,0.004742,1.978541,-0.007068,-0.057249,-0.007151,-0.067982,-0.006195,0.089019,0.025059,0.008543,0.113656,-0.207112,-0.009660,-3.456129
0.322500,-0.048428,0.203106,1.406854,-0.021598,-0.085838,0.003915,-0.092621,-0.017199,0.101725,0.009698,-0.003342,0.091134,0.508521,-0.013698,-4.288161
0.323333,-0.110504,-0.118955,0.489230,-0.014328,-0.086391,0.009143,-0.035722,0.014329,0.092056,0.048064,-0.007271,0.073447,0.318960,0.001797,-3.933056
0.324167,-0.083464,0.168373,-0.509277,-0.026314,-0.075790,0.022550,0.086811,0.003090,0.076356,0.021153,-0.049505,0.071331,0.099613,0.010579,-4.042469
0.325000,0.019036,0.205763,-0.824532,-0.021859,-0.081588,0.013601,0.025788,-0.027114,0.086663,0.015342,-0.072849,0.026846,-0.161088,0.000134,-3.626605
0.325833,0.081558,-0.122256,-0.776118,-0.014552,-0.057023,0.012029,-0.007602,-0.000293,0.080377,-0.029634,-0.044054,0.031739,-0.013427,-0.010925,-1.707740
0.326667,0.087229,0.240095,-0.595631,-0.010349,-0.054055,0.030330,-0.271664,-0.007847,0.058202,-0.040073,-0.018524,-0.032061,0.239749,-0.015733,0.072656
0.327500,0.080516,0.102338,-0.136917,0.000970,-0.027443,0.019812,-0.295009,0.005619,0.036535,-0.005144,0.017926,-0.040626,0.454743,-0.022529,1.053845
0.328333,0.156849,-0.052583,0.258441,-0.005467,0.036161,-0.003363,-0.053158,-0.016500,0.031742,-0.001147,0.064989,-0.099675,0.072044,-0.005834,2.401267
0.329167,0.057046,0.124746,0.501629,0.002841,0.059161,-0.033253,0.075549,-0.001107,0.018354,0.042249,0.067892,-0.112905,-0.096104,0.017567,3.498698
0.330000,-0.008405,-0.122228,0.310578,0.004686,0.083732,-0.061927,0.073199,0.009844,-0.011884,0.055294,0.004978,-0.077705,-0.061302,0.022803,2.737658
0.330833,0.005130,-0.188068,-0.052575,0.012737,0.101385,-0.058257,-0.026845,-0.005151,-0.001178,0.067416,0.019695,-0.108345,-0.127678,0.015823,0.887570
0.331667,0.001301,0.135466,-0.152284,0.017079,0.084848,-0.100514,0.167677,-0.015258,-0.008181,-0.006552,-0.002071,-0.079687,0.048804,-0.002610,0.492666
0.332500,-0.054887,-0.059267,-0.725572,0.010242,0.071078,-0.153285,0.258925,-0.001089,-0.004438,-0.001235,-0.071129,-0.059009,-0.120764,-0.018763,0.541294
0.333333,-0.204216,-0.105970,-0.829553,0.015730,0.079926,-0.101045,0.316285,-0.009781,-0.026207,-0.059484,-0.009684,-0.078187,0.191003,-0.003034,1.430622
0.334167,-0.186699,0.125761,-0.762275,0.011423,0.055392,0.023725,0.305228,0.001861,-0.038040,0.001315,0.041153,-0.004765,0.377135,0.003835,2.390610
0.335000,-0.183010,-0.142638,-0.649148,0.001751,0.018214,0.102951,-0.112276,-0.007201,-0.031966,-0.003349,0.035491,-0.005206,-0.051410,0.012984,1.388051
0.335833,-0.192226,-0.003485,0.061058,0.004574,-0.014548,0.161073,-0.376589,-0.004760,-0.052508,0.027502,-0.005270,0.003042,-0.281364,0.009916,-0.232217
0.336667,-0.183042,0.099740,0.820388,-0.002228,-0.022493,0.146245,-0.352427,0.028113,-0.051722,0.020749,-0.031957,0.058582,-0.106931,0.005313,-0.348298
0.337500,-0.141079,-0.201828,1.012119,-0.002630,-0.008117,0.148220,-0.289035,0.009942,-0.052771,-0.046224,-0.018892,0.057341,0.444203,-0.009980,0.369906
0.338333,0.113614,-0.205119,0.740421,-0.013411,0.009131,0.067546,-0.126678,0.008328,-0.025561,-0.034894,-0.068117,0.044772,0.111280,-0.010633,1.062472
0.339167,0.180401,0.246062,0.487639,-0.009086,0.010255,-0.037149,0.116401,0.013508,-0.043443,-0.062167,-0.070796,0.095923,0.076152,-0.016482,0.922889
0.340000,0.305318,0.141235,0.314274,-0.007199,0.008443,-0.065580,0.311014,0.010070,-0.034653,0.023148,-0.022315,0.136447,-0.042290,0.005584,0.131443
0.340833,0.176699,-0.113760,0.236805,-0.017361,0.013679,-0.095684,0.603080,0.017541,-0.035140,0.009397,-0.015869,0.096262,-0.011752,0.017879,-0.371312
0.341667,0.020905,0.001368,0.041995,0.000865,-0.003121,-0.087603,0.870565,0.009977,-0.018739,0.058005,0.028221,0.068543,0.052010,0.007279,0.305995
0.342500,0.020043,0.176383,-0.249372,0.000177,-0.008173,-0.066937,0.755525,-0.011410,0.011885,-0.005290,0.011407,0.089543,0.027453,-0.006986,0.350569
0.343333,0.118490,-0.052451,-0.351663,0.008498,0.015527,-0.040521,0.114092,0.014100,-0.008021,0.000326,0.004660,0.031932,-0.009960,-0.014540,-0.476559
0.344167,0.112760,0.164163,-0.032218,0.013316,0.026394,-0.026333,-0.797522,-0.005362,0.001457,-0.101536,0.053765,-0.071103,0.011133,-0.015381,-1.843762
0.345000,0.071883,0.044210,0.066834,0.002877,-0.002043,-0.029381,-0.976339,-0.002215,0.011145,-0.076798,0.040161,-0.051796,-0.210346,-0.002793,-2.591221
0.345833,0.055121,-0.209207,0.191284,0.011055,-0.053824,-0.116477,-0.929087,0.001708,0.007748,-0.010593,0.129854,-0.040541,-0.143238,0.012086,-3.200237
0.346667,-0.002628,0.106297,0.702618,0.015872,-0.051939,-0.162333,-0.767441,-0.012683,0.009726,0.031329,0.079906,-0.098762,-0.114808,0.007287,-4.147398
0.347500,-0.074768,-0.026706,0.904172,-0.006175,-0.018244,-0.131845,-0.349930,0.008461,0.011743,0.065008,-0.132905,-0.084022,-0.315728,0.005395,-3.995738
0.348333,-0.118529,-0.313071,-0.050489,0.006096,-0.015316,-0.067893,0.070933,0.013091,0.019001,0.020885,-0.187419,-0.036222,-0.143792,-0.004118,-2.816193
0.349167,-0.136923,0.074130,-0.398920,-0.014610,-0.032323,0.007080,0.270557,-0.009947,-0.004789,0.019987,0.045712,-0.057056,-0.230895,-0.010721,-0.745692
0.350000,-0.132662,-0.049585,-0.593541,0.001431,-0.048191,0.309878,0.356985,-0.003600,-0.004052,-0.048137,0.283537,-0.015361,-0.341601,-0.014718,1.303884
0.350833,-0.169952,-0.265904,-0.983353,0.004929,-0.094167,0.478830,0.381638,-0.026624,0.012859,0.002390,0.118893,0.041663,-0.164003,0.008612,2.841796
0.351667,-0.141649,0.044602,-0.897497,0.001219,-0.090702,0.282714,0.380511,-0.003807,0.022339,-0.000984,0.197925,0.044544,-0.123947,0.020360,3.360034
0.352500,-0.124634,0.083826,-0.622766,0.010133,-0.062602,0.071046,0.396902,-0.001531,0.012231,0.055138,0.086301,0.091215,-0.079035,0.015948,2.449228
0.353333,-0.018945,-0.152272,-0.596434,-0.002513,-0.037864,0.020449,0.359341,-0.017668,0.002426,0.021241,-0.136393,0.051044,0.159669,0.004990,2.189802
0.354167,0.080977,0.117030,-0.708462,0.020041,-0.046153,-0.010610,-0.007978,-0.009649,0.001220,-0.007134,-0.157417,0.023970,-0.041970,-0.012210,3.129478
0.355000,0.123864,0.080347,-0.689252,0.001805,-0.067533,0.040645,0.041755,0.000857,-0.002468,0.033507,-0.125298,0.043268,0.018104,-0.019327,3.388438
0.355833,0.094603,-0.107983,-0.292117,-0.001373,-0.028965,-0.004102,0.022422,0.001645,-0.010870,0.011343,-0.205799,0.007032,0.305222,-0.004917,3.308693
0.356667,0.096324,0.162915,0.068693,0.012950,0.022966,-0.050186,-0.134943,0.003552,-0.015382,0.014888,-0.118203,-0.074173,0.167922,0.004773,2.345138
0.357500,0.153717,0.258023,0.264041,-0.014578,0.064558,-0.063972,-0.074516,-0.016304,-0.002063,-0.048164,0.049262,-0.123237,0.361096,0.017370,1.079587
0.358333,0.144059,0.073320,0.201300,-0.026272,0.096368,-0.062322,0.017216,0.006019,0.009607,-0.006756,0.088750,-0.113852,0.400577,0.017918,0.428688
0.359167,0.072637,-0.056388,0.339481,-0.018308,0.083999,-0.068653,0.037685,0.009650,0.010830,-0.055127,0.059301,-0.115826,0.220693,0.006108,-0.835687
0.360000,-0.007664,-0.170605,0.695090,-0.032026,0.075289,-0.086521,0.244579,0.009707,0.018893,-0.015818,-0.019396,-0.125716,0.297557,-0.007227,-2.359152
0.360833,0.061010,-0.066848,0.737590,-0.016449,0.058856,-0.176695,0.263726,0.017799,0.020258,-0.000219,-0.136951,-0.054620,0.174767,-0.012020,-3.139640
0.361667,0.079606,0.221910,0.913576,-0.006353,0.060839,-0.272811,0.213671,-0.009849,0.021828,0.012570,-0.160738,-0.004669,0.052759,-0.015598,-3.738233
0.362500,0.040714,0.166619,1.151855,-0.014385,0.061125,-0.169787,0.064967,0.009784,0.000593,0.030630,-0.039602,-0.000022,0.304658,-0.006060,-3.979881
0.363333,0.025880,-0.136938,0.831108,-0.013977,0.037138,-0.082898,-0.398121,0.006677,-0.003289,0.000546,0.181951,0.044116,0.218952,0.010638,-3.203965
0.364167,-0.037155,0.070309,0.575633,0.007399,0.007484,-0.004776,-0.432893,-0.003283,-0.001243,0.007908,0.071084,0.071237,-0.277012,0.005964,-2.511564
0.365000,-0.094915,0.054350,-0.115513,-0.037824,0.013943,0.037785,-0.332231,-0.007262,0.003541,0.012422,0.005822,0.057176,-0.349691,0.006006,-1.738442
0.365833,-0.049972,-0.118361,-0.895743,-0.002078,0.014199,-0.013274,-0.366089,-0.018519,-0.019445,0.085180,0.003017,0.099681,-0.299277,-0.015480,-0.943493
0.366667,-0.091297,0.145358,-1.192419,0.018063,0.006814,-0.073181,-0.224092,-0.006215,-0.043189,0.032381,0.034055,0.086829,-0.364319,-0.016382,0.652689
0.367500,-0.098549,0.088437,-1.467993,0.014219,0.015361,-0.049677,0.139132,0.000368,-0.062200,0.061378,0.087869,0.105660,-0.019499,-0.017144,2.806921
0.368333,-0.086114,-0.220545,-1.643166,0.023478,0.037307,0.015373,0.295205,-0.019659,-0.036506,0.051307,0.061689,0.099771,0.411520,0.017175,3.388015
0.369167,-0.072630,0.007057,-1.178187,0.033638,0.057903,-0.030978,-0.251197,0.018401,0.037543,-0.049874,-0.038768,0.041575,0.030615,0.017455,2.472965
0.370000,-0.121279,-0.027333,0.572952,0.036154,0.055071,-0.005686,-0.484902,0.003781,0.041523,-0.114308,-0.031550,0.056367,-0.143339,0.013604,1.218345
0.370833,-0.123257,-0.124354,2.388374,0.043995,0.059981,0.046778,-0.275262,-0.004000,-0.025501,-0.032748,-0.007842,0.013384,-0.237510,-0.003227,-0.577115
0.371667,-0.117300,0.122878,2.614602,0.022668,0.042618,0.144491,-0.197482,-0.002343,0.032067,0.018715,-0.165800,-0.007280,0.013294,-0.016098,-1.452136
0.372500,-0.056679,-0.097616,1.981695,0.014123,-0.003376,0.196571,-0.008422,-0.013522,0.274930,-0.038958,-0.224002,-0.034947,0.087582,-0.017989,-1.037703
0.373333,0.076660,-0.192316,1.242407,0.021398,-0.046054,0.419579,0.341579,0.009920,0.498136,-0.018234,-0.170050,-0.082322,0.066188,-0.006455,0.587068
0.374167,0.069151,0.112484,0.382410,0.007394,-0.062306,0.775245,0.363236,0.008165,0.313473,-0.286994,0.018665,-0.053479,0.163837,0.018505,1.793460
0.375000,0.084434,-0.103193,-0.354928,0.013441,-0.083021,0.514831,0.266872,0.008676,-0.426027,-0.183152,0.204831,-0.060784,0.056990,0.025613,2.673963
0.375833,0.049487,-0.170108,-1.004072,-0.008090,-0.109320,0.048947,0.322606,0.024109,-0.709041,0.057255,0.104939,-0.021146,-0.179563,0.013040,2.308348
0.376667,0.050287,0.141229,-1.553055,-0.024266,-0.155731,-0.067456,0.306145,0.010812,-0.606237,0.109683,0.114791,0.034230,-0.210651,-0.013415,0.937431
0.377500,0.036245,0.088487,-2.071047,-0.029311,-0.181218,-0.382186,0.233495,0.018515,-0.301201,0.106440,0.291734,-0.013450,-0.250810,-0.017280,-0.348794
0.378333,0.068611,0.048274,-2.346972,-0.024930,-0.177229,-0.603365,0.122153,0.012260,0.129906,0.080498,0.186352,0.007088,-0.367265,-0.014731,-1.287356
0.379167,0.054367,-0.036452,-1.971465,-0.029912,-0.149990,-0.452997,0.059775,0.002557,0.261504,0.108162,0.175791,0.005884,-0.224965,0.008579,-2.407640
0.380000,0.072297,-0.121709,-0.567242,-0.048857,-0.052915,-0.267246,-0.020898,-0.011684,0.238839,0.021591,0.109376,-0.022640,-0.412886,0.014503,-2.669332
0.380833,0.030280,-0.092254,0.592068,-0.016779,0.026322,-0.150643,-0.235680,0.003086,0.357461,-0.009686,-0.011898,-0.001813,-0.256691,0.014027,-0.975133
0.381667,0.036683,0.234457,2.121837,-0.009073,0.072387,-0.122259,-0.160562,-0.008393,0.213296,0.017689,-0.113651,-0.022354,-0.198506,0.005321,-0.060094
0.382500,0.010656,-0.067587,3.133917,-0.004235,0.078499,-0.139816,0.084153,0.006042,0.091670,0.100201,-0.221147,-0.031388,-0.287994,-0.014667,-0.726057
0.383333,-0.012394,-0.168410,2.435564,0.009474,0.059554,-0.246634,0.045190,-0.000629,0.045659,0.263631,-0.243682,0.007941,-0.018943,-0.023661,-0.872255
0.384167,-0.012173,0.228365,0.595892,0.010840,0.051198,-0.221744,-0.175632,-0.017441,-0.001513,0.218662,-0.152195,0.027212,0.057248,-0.010216,0.275717
0.385000,0.026108,0.117687,-0.826693,0.009474,0.053527,-0.174071,-0.075362,0.002124,-0.017520,0.101544,-0.033435,-0.004148,0.186568,0.015444,1.837852
0.385833,-0.014913,-0.056519,-1.433519,-0.004083,0.068767,-0.118246,0.145966,-0.001002,-0.058849,-0.202024,-0.014576,-0.013859,0.438866,0.019748,2.049225
0.386667,-0.003121,0.234355,-1.880069,0.021899,0.094709,-0.074249,0.190504,-0.003948,-0.076238,-0.254278,-0.001535,0.028101,0.332317,0.010934,1.314058
0.387500,-0.013322,0.169883,-1.984694,0.006250,0.094804,0.310702,0.066181,-0.017255,-0.058878,-0.431202,0.109552,0.001923,0.427804,-0.001232,0.683372
0.388333,-0.003897,-0.207784,-2.227944,0.004828,0.088184,1.060542,-0.053362,-0.014229,-0.044023,-0.314711,0.010572,0.023554,0.697438,-0.015227,0.655342
0.389167,-0.015021,0.009435,-1.612846,0.000093,0.052616,0.895789,-0.213744,0.001612,-0.041456,-0.084403,-0.222361,0.073456,0.548197,-0.017624,0.384454
0.390000,-0.009506,0.100593,-0.736951,-0.005193,0.030243,0.137878,-0.094369,-0.013679,-0.047680,0.113547,-0.079310,-0.000195,-0.022676,-0.005220,-0.282342
0.390833,-0.019441,-0.255176,-0.295393,-0.009034,0.042290,0.074267,-0.101705,-0.015699,-0.040576,0.086121,0.084190,-0.073791,0.026120,0.011150,-0.735720
0.391667,-0.001686,0.004165,0.537334,0.002165,0.075635,0.210927,-0.209162,0.004101,-0.030978,0.134229,-0.002389,-0.108704,0.072733,0.018973,-1.140828
0.392500,-0.023877,-0.012931,1.334643,-0.012626,0.045884,0.020092,-0.177877,-0.008135,-0.035360,0.139474,0.046714,-0.055311,0.383588,0.007870,-1.107300
0.393333,0.008558,-0.250902,1.880086,0.001388,0.007332,-0.211350,-0.114278,0.014588,-0.027005,0.160306,0.103810,0.017002,0.144396,-0.005068,-0.887511
0.394167,0.028757,0.113029,2.258713,-0.004454,0.000686,-0.194990,0.174458,-0.008281,-0.002536,0.107776,-0.008374,0.001320,-0.093846,-0.018317,-0.358831
0.395000,0.085069,0.080191,2.197417,0.013352,-0.029487,-0.212794,0.324536,-0.015693,0.004349,0.048269,-0.047945,0.019010,-0.032123,-0.011126,0.215039
0.395833,0.117823,-0.220156,1.717568,0.020487,-0.079876,-0.225216,0.216624,0.018920,0.017943,0.005594,-0.023099,0.049688,0.439328,0.002772,0.919801
0.396667,-0.029540,0.160796,0.923628,0.010709,-0.059743,-0.160658,-0.052058,-0.008488,0.034160,-0.134380,0.025473,0.003396,-0.268369,0.015900,1.368295
0.397500,-0.185044,-0.055931,0.081307,0.000663,-0.034447,-0.146934,-0.377716,0.005865,0.045562,-0.106303,0.107890,0.025015,-0.206198,0.020323,0.799231
0.398333,-0.103004,-0.116086,0.018116,-0.007046,-0.050881,-0.125528,-0.167489,-0.003767,0.016026,-0.041247,0.093130,0.002317,-0.372374,0.006277,0.320669
0.399167,-0.025853,0.244008,-0.113095,0.020399,-0.095815,-0.103969,0.047844,0.007955,-0.008478,0.004174,0.046702,0.013961,-0.213728,-0.028528,-0.256463
0.400000,-0.041138,0.081819,-0.518591,-0.003819,-0.109323,-0.097997,-0.007815,0.017403,-0.019516,-0.028334,-0.000979,-0.012455,0.055882,-0.029006,-0.945458
0.400833,-0.064429,-0.065394,-0.714134,-0.005838,-0.080759,-0.071443,-0.078475,-0.005159,-0.023914,0.044326,-0.123721,-0.035197,-0.131203,-0.009500,-2.324955
0.401667,-0.103758,-0.095103,-0.523326,-0.005490,-0.066911,-0.043955,-0.034481,0.007579,-0.011411,0.032326,-0.032173,-0.019708,-0.547136,0.003900,-2.966493
0.402500,-0.093147,0.143133,-0.520998,0.005468,-0.038502,-0.019894,0.030284,0.011538,0.003533,0.042005,0.157586,-0.068765,-0.297958,0.023401,-1.252572
0.403333,-0.085020,0.024901,-0.614563,0.001709,-0.003327,-0.071039,0.105407,0.017566,0.004317,0.016893,0.016365,-0.047265,-0.087374,0.019250,0.124670
0.404167,-0.070921,-0.189508,-0.849187,0.007647,0.007632,-0.098551,0.095325,0.008895,0.005158,0.016941,-0.061973,-0.011153,0.283852,0.008233,0.246205
0.405000,-0.050330,-0.008488,-0.837551,-0.007235,0.050070,-0.015014,0.054009,-0.009736,0.037510,0.018482,-0.061527,-0.053310,-0.447812,-0.016515,0.734221
0.405833,0.087897,0.176383,-0.777248,-0.003265,0.089811,0.058873,0.007037,0.003799,0.045999,-0.024584,-0.090761,0.021002,-0.410287,-0.013947,0.788222
0.406667,0.188625,-0.102924,0.271332,-0.012337,0.084597,0.097030,0.018276,0.009529,0.036735,0.006744,-0.073356,0.069748,-0.498283,-0.008324,0.062193
0.407500,0.206729,0.100659,1.899522,-0.018433,0.056410,0.196063,0.014553,-0.009478,-0.000197,-0.041968,-0.037826,0.040295,0.035413,0.009817,-0.141906
0.408333,0.147573,0.218843,1.949548,-0.008435,0.038375,0.216984,0.061078,-0.012784,-0.007431,0.015114,0.041785,0.032587,0.486062,0.021401,-0.848485
0.409167,0.097536,-0.124859,0.296618,-0.001116,0.040729,0.045523,0.024829,-0.012440,0.021277,0.012420,0.173883,0.067208,-0.056855,0.011475,-0.977973
0.410000,-0.007323,-0.026264,-0.411363,-0.005332,0.063790,-0.045025,0.046206,-0.010586,0.022891,0.026232,0.165453,0.086604,-0.058272,0.009338,0.215861
0.410833,0.011200,0.062912,-0.421003,0.006070,0.068206,-0.027500,0.099572,0.014292,-0.000936,-0.000222,0.042135,0.049991,0.136272,-0.012020,0.729037
0.411667,0.089286,-0.296687,-0.948851,0.004855,0.042849,-0.093110,0.056580,0.000695,-0.026276,-0.006522,-0.013880,0.098003,0.084226,-0.023150,1.127630
0.412500,0.035695,0.136954,-1.289851,-0.001662,-0.006619,-0.235787,-0.106611,-0.006369,-0.038058,0.016639,-0.059815,0.093246,0.329541,-0.013370,1.783922
0.413333,-0.008340,0.147661,-1.606626,0.001005,-0.097126,-0.222127,-0.042308,0.007434,-0.007786,-0.013286,-0.146792,0.036870,0.631724,0.011978,3.196691
0.414167,0.056900,-0.106836,-1.871931,0.006286,-0.106279,-0.086699,0.193267,0.008527,0.005755,0.006553,-0.145730,0.031946,0.223395,0.012458,3.651270
0.415000,0.117355,0.100049,-0.903402,0.003794,-0.091596,0.305124,0.539611,0.007580,0.004812,-0.096256,-0.057253,0.024683,-0.155572,0.017062,2.730792
0.415833,0.129298,-0.131833,-0.135508,-0.009687,-0.065727,0.477586,0.049519,-0.006253,0.008719,-0.128214,-0.033047,-0.032150,-0.113069,-0.008392,0.885895
0.416667,0.050227,-0.040328,0.227566,0.024119,-0.039800,0.201791,-0.611365,-0.018183,0.007823,-0.103342,-0.018353,-0.020375,-0.261044,-0.025299,-0.745862
0.417500,-0.074164,0.149630,0.408081,0.015633,-0.058058,0.065916,-0.475272,0.000309,0.008642,0.036978,0.058066,-0.043061,-0.325251,-0.026030,-1.469585
0.418333,-0.111656,-0.199480,0.397959,0.011380,-0.051063,0.041503,0.056851,0.000840,0.018158,0.060531,-0.089766,-0.096912,-0.172166,-0.006771,-1.782926
0.419167,-0.191405,-0.098275,-0.119079,0.010281,-0.033919,-0.130340,0.118361,-0.004247,0.012531,0.016326,-0.078734,-0.070594,-0.216258,0.010962,-1.813096
0.420000,-0.224201,0.090397,-0.233439,0.012934,-0.005709,-0.180886,0.002597,-0.015271,0.001952,-0.006042,0.185426,-0.060883,0.294949,0.026711,-1.564221
0.420833,-0.237700,-0.185510,0.149138,0.016582,0.050805,0.091434,0.003366,-0.001273,-0.019708,-0.001358,0.165562,-0.108545,0.481487,0.031320,-0.465250
0.421667,-0.201868,0.014121,0.418006,-0.000300,0.091515,0.064959,0.141807,0.007213,-0.026224,0.010719,0.081202,-0.121729,0.026384,0.000374,0.991233
0.422500,-0.121747,0.112386,0.422892,-0.002776,0.069560,-0.151856,0.177542,-0.021566,0.006193,0.008694,0.176435,-0.074794,0.073943,-0.014400,1.345473
0.423333,-0.101700,-0.209588,0.735097,-0.002909,0.071892,0.015747,0.349482,0.015369,0.029014,0.148532,0.001221,-0.053167,0.293797,-0.012851,0.946941
0.424167,-0.036114,0.149923,0.992480,-0.018400,0.071166,0.414372,0.286207,0.010276,-0.009488,0.067850,-0.070811,-0.055588,0.277706,0.004104,0.061077
0.425000,0.065280,0.150771,1.335320,-0.007901,0.065667,0.382353,-0.342797,0.013798,-0.037129,0.025141,0.009565,-0.072702,0.220862,0.015562,-0.611888
0.425833,0.118450,-0.111635,1.974005,-0.033970,0.093193,-0.018091,-0.626565,0.016461,-0.031615,-0.025063,0.057656,-0.036855,0.357013,-0.000301,-1.200916
0.426667,0.172733,0.212667,2.156139,-0.041060,0.098308,-0.226222,-0.516238,0.008330,-0.056703,0.027560,0.051430,-0.061967,0.014566,-0.011898,-1.720861
0.427500,0.176304,0.050721,1.666076,-0.018329,0.104611,-0.289653,-0.193954,0.023115,-0.052091,0.005391,-0.027631,-0.051992,-0.010519,-0.006413,-1.028303
0.428333,0.121440,-0.105790,0.302718,-0.026955,0.070090,-0.293662,0.050131,0.019298,-0.037880,0.009436,-0.046520,0.033570,-0.082427,-0.004445,-1.224904
0.429167,0.120194,0.122202,-0.878354,0.000368,0.007666,-0.220808,0.168644,-0.004810,0.002606,0.009163,-0.062038,0.061724,-0.266746,-0.013776,-2.360095
0.430000,0.101363,0.112331,-1.494812,0.005825,-0.043949,-0.160735,0.228512,0.002358,0.027300,-0.038625,-0.090700,0.088368,-0.104623,-0.000074,-1.954189
0.430833,0.122214,-0.054189,-1.470728,0.014457,-0.072128,-0.092424,0.053140,-0.012917,0.025117,-0.016297,-0.078660,0.131703,-0.150689,0.008432,-1.276735
0.431667,0.051108,-0.147068,-0.764784,0.014383,-0.105741,-0.031450,-0.124824,-0.004405,0.002367,-0.070817,-0.061633,0.091351,-0.309538,0.004420,-1.951003
0.432500,0.018851,0.064287,-0.825149,0.009131,-0.119012,0.051517,-0.036871,-0.018190,-0.009006,-0.006734,-0.061128,0.101599,-0.218106,0.001165,-2.616659
0.433333,-0.076150,-0.179676,-1.265665,0.004520,-0.116525,0.072766,0.054039,-0.035500,-0.001012,-0.028078,-0.058360,0.135432,-0.300499,-0.005604,-1.429264
0.434167,-0.152387,-0.043508,-1.329089,0.007130,-0.110777,0.043226,0.194540,-0.002926,-0.002745,0.028405,-0.068250,0.108288,-0.316734,-0.000474,0.656582
0.435000,-0.235933,0.160011,-1.141877,-0.008044,-0.096245,0.014747,0.208780,-0.013995,-0.000730,-0.005603,-0.020566,0.140667,0.008461,-0.005418,1.204547
0.435833,-0.162284,-0.159911,-0.469568,0.004942,-0.090586,-0.011456,0.009395,-0.021089,-0.001029,-0.010027,0.019438,0.119136,-0.061880,0.009779,0.335336
0.436667,-0.013371,0.051740,0.692808,-0.008523,-0.064442,-0.076259,0.034824,-0.011070,0.031183,-0.034775,0.034585,0.054451,-0.098452,0.028943,0.516938
0.437500,0.010158,0.121159,1.016025,0.002689,-0.034981,-0.101811,0.134346,-0.010471,0.048631,-0.046588,0.054851,0.075157,0.016652,0.012098,1.657152
0.438333,0.033728,-0.103763,0.837614,-0.002153,0.009632,-0.034509,0.080011,0.010329,0.026004,-0.005034,0.044913,0.063819,-0.098964,-0.010084,3.029890
0.439167,0.049857,0.084541,0.473033,0.002742,0.026615,-0.012092,-0.008707,0.013510,0.010002,-0.000754,0.009887,0.022170,0.135624,-0.019904,3.776730
0.440000,0.078063,0.066578,-0.017789,0.020429,-0.004988,-0.047178,-0.032341,-0.009600,0.002762,0.044531,-0.029088,-0.001670,0.310000,-0.024072,3.925508
0.440833,0.054092,-0.181593,-0.101378,0.028474,-0.028921,-0.215863,-0.039297,0.002820,0.019989,-0.009864,-0.030429,-0.043344,0.085947,-0.010687,3.552269
0.441667,0.030869,0.081765,0.036973,0.016955,-0.006783,-0.181512,-0.040312,0.008834,0.016650,0.036109,0.012201,-0.123530,0.231831,0.012014,2.934350
0.442500,0.054297,-0.138214,-0.046127,0.019278,0.012393,0.159801,0.017193,0.011977,0.011788,-0.022931,0.042110,-0.181260,0.028911,0.015802,2.097157
0.443333,0.039659,-0.258185,0.268036,0.015748,0.032662,0.521048,0.061728,0.009067,0.019554,0.008489,0.052348,-0.174616,0.043702,0.008612,1.093030
0.444167,0.048568,0.168018,0.873942,0.014284,0.065091,0.267731,0.108467,-0.000329,0.026476,-0.007261,0.067386,-0.181440,0.117933,-0.014284,0.065069
0.445000,0.100367,0.189918,1.041794,-0.000849,0.098452,0.022644,0.086976,-0.004900,0.028685,0.015580,0.028680,-0.144820,0.033214,-0.017028,-0.298675
0.445833,0.045484,-0.070426,1.499744,0.007714,0.101817,0.137401,-0.141692,0.021621,0.049012,-0.015453,-0.014597,-0.146209,-0.025096,-0.005113,-0.117207
0.446667,-0.007167,0.230781,1.108863,0.001500,0.105885,0.265494,-0.305415,-0.003149,0.033683,0.015308,-0.005045,-0.182049,0.059689,0.015815,-1.558845
0.447500,-0.008640,0.143809,0.490320,-0.005474,0.100288,0.176954,-0.032268,-0.003054,-0.004700,0.011429,-0.020468,-0.132181,-0.068618,0.020273,-2.873850
0.448333,-0.033119,-0.227609,-0.307064,-0.003462,0.079366,0.030579,0.178857,0.006963,-0.019813,0.037610,0.007649,-0.054950,-0.040505,0.017111,-2.898585
0.449167,-0.054230,0.061014,-1.472029,-0.038568,0.064146,-0.050268,0.160194,0.025994,-0.035676,0.007334,0.043746,-0.029592,-0.127799,0.005718,-2.440122
0.450000,-0.077481,-0.116306,-2.146078,-0.033598,0.031227,-0.080340,0.182377,0.006437,-0.058449,-0.025690,0.010442,0.039844,-0.237045,-0.012839,-0.881693
0.450833,-0.073431,-0.065488,-2.386830,-0.020766,0.024638,-0.063271,0.269316,-0.009899,-0.061788,-0.016297,0.056784,0.088183,-0.041342,-0.008503,0.174062
0.451667,-0.142022,0.135910,-2.179373,-0.016107,0.007516,-0.092894,-0.148019,0.009486,-0.032922,-0.035901,0.056237,0.051627,0.010895,-0.011335,0.218323
0.452500,-0.189405,-0.036602,-1.514316,-0.000404,-0.045261,-0.056601,-0.507809,0.004009,-0.025293,0.083185,-0.005133,0.071301,-0.156454,0.000331,-0.673056
0.453333,-0.110730,0.033839,-0.806890,-0.000674,-0.049271,-0.046260,-0.365408,-0.014282,0.010050,0.089340,-0.039186,0.144435,0.060554,0.008182,-1.167047
0.454167,0.031163,0.035906,-0.081444,-0.009902,-0.011040,-0.045553,-0.328855,-0.006947,0.048674,0.096999,-0.053006,0.137324,-0.079525,0.004740,-1.458113
0.455000,0.037179,-0.092096,0.629831,-0.010539,-0.054895,-0.073103,-0.289468,0.001131,-0.007695,0.038409,-0.067562,0.112629,-0.076247,-0.004809,-1.419463
0.455833,0.014627,0.096869,1.445097,-0.009910,-0.058428,-0.074587,-0.017246,0.005817,-0.052854,-0.070720,-0.049965,0.123536,0.268834,-0.002613,-0.908826
0.456667,0.070208,0.082736,2.013795,0.007862,-0.013823,-0.086767,0.100761,-0.000381,-0.066038,-0.203688,-0.003492,0.170559,0.129517,-0.003934,0.350867
0.457500,0.067247,-0.118058,1.814274,0.002652,-0.006945,-0.090387,0.086595,-0.013208,-0.042039,-0.127954,0.028605,0.139148,0.290748,-0.003279,0.800157
0.458333,0.076894,0.072759,0.964945,0.007734,-0.024468,-0.073806,0.033103,0.012789,-0.050403,-0.009380,0.043660,0.081653,0.254952,-0.004005,-0.270493
0.459167,0.043494,-0.007233,0.100766,0.000843,-0.021161,-0.040313,0.267808,0.013199,-0.039364,0.000211,0.031384,0.075582,0.063473,0.008229,-1.450318
0.460000,0.048719,-0.299467,-0.582098,0.006403,-0.005036,-0.049026,0.306310,-0.012452,-0.002011,0.052036,-0.001113,0.004942,0.038401,0.010994,-1.646972
0.460833,0.021798,0.035878,-1.046034,0.012681,-0.006056,-0.008590,0.342752,0.006312,-0.006803,-0.017626,-0.016964,-0.021673,0.066482,-0.006087,-1.335377
0.461667,0.039051,0.095315,-1.171211,0.007634,-0.010835,0.008189,0.042704,-0.010787,0.010555,0.051700,-0.001874,-0.054527,-0.164981,-0.018446,-0.396823
0.462500,0.033202,-0.080883,-1.112807,-0.000332,-0.000169,-0.015171,-0.215392,-0.007003,0.089486,0.024120,0.023057,-0.125740,0.078987,-0.014181,0.645239
0.463333,0.010365,0.166918,-0.691439,-0.002353,-0.051726,-0.002969,-0.391853,-0.015767,0.096838,0.043381,0.026667,-0.078537,0.042275,0.002131,0.611879
0.464167,0.008383,-0.032862,-0.064111,0.002344,-0.056086,-0.002167,-0.244991,-0.021530,0.065780,0.001306,0.006949,-0.036912,-0.050380,0.007755,0.315370
0.465000,-0.016393,-0.321936,0.452327,0.012246,-0.045560,-0.002493,0.157570,-0.001719,0.075861,0.001206,-0.012002,-0.081680,0.150443,0.013527,-0.583139
0.465833,0.038105,-0.108708,1.222994,-0.016890,-0.065870,-0.000067,0.329795,0.012679,-0.006840,0.005553,-0.023016,-0.076523,0.045248,0.015481,-0.788664
0.466667,0.036203,0.219570,1.627510,0.023586,-0.087038,0.038906,0.581075,-0.012524,-0.011841,0.010080,-0.059348,-0.028704,-0.087746,-0.000421,0.650756
0.467500,-0.058901,0.184099,1.949032,0.001691,-0.079837,0.040655,0.768059,0.009031,-0.025009,-0.004585,-0.044989,-0.007892,-0.002320,-0.012510,1.412936
0.468333,-0.110673,-0.071970,2.290440,0.002879,-0.039439,0.058216,0.423296,0.010352,-0.079730,-0.021499,0.003919,-0.053382,-0.190739,-0.003543,1.903380
0.469167,-0.019209,0.014133,2.012999,0.005788,0.005117,0.058567,0.526779,0.008069,-0.053910,0.013510,0.010055,-0.079186,-0.161789,0.011224,3.763850
0.470000,0.016324,0.344169,2.167405,0.007977,0.020526,0.061483,0.339149,0.004011,0.023020,-0.032461,0.019860,-0.053322,0.043417,0.012869,3.839200
0.470833,0.046235,0.031173,1.738697,0.020431,0.053592,0.036841,-0.661660,-0.012809,0.041818,0.022170,-0.004296,-0.016888,-0.022826,0.005666,3.436655
0.471667,0.024703,-0.138386,-0.096870,0.004236,0.090695,0.014329,-1.180673,0.012544,0.001112,-0.031033,-0.081111,-0.043017,-0.088413,-0.009316,4.137796
0.472500,-0.049691,0.186169,-1.384677,0.015387,0.064499,0.024698,-0.736352,-0.000953,0.030139,0.041385,-0.130097,-0.040948,-0.094652,-0.025516,3.120555
0.473333,-0.019674,0.100637,-2.157701,-0.016463,0.061469,0.012480,-0.706237,-0.015759,0.032301,-0.015398,-0.142480,-0.021693,-0.433699,-0.013788,1.196222
0.474167,0.014767,-0.097554,-2.455386,-0.007246,0.048127,-0.002572,-0.585989,0.000481,0.012615,0.023678,-0.053789,0.043575,-0.325027,-0.010601,-0.151161
0.475000,0.050235,-0.190624,-2.153734,-0.023037,0.028820,-0.001173,-0.237749,0.000775,-0.000869,-0.011680,0.068308,0.070009,-0.269196,0.013343,-1.584499
0.475833,0.020167,-0.151526,-2.684829,-0.017915,0.005291,-0.012721,-0.075232,0.012748,-0.006959,-0.002919,0.096776,0.032278,-0.281656,0.028136,-2.419186
0.476667,0.030734,-0.284325,-2.178512,0.007048,-0.009751,-0.016879,-0.042010,0.015809,-0.005996,0.000057,-0.004935,0.063899,-0.017271,0.023861,-3.287587
0.477500,0.054903,-0.330800,-0.789844,-0.002629,-0.015055,-0.012240,0.065002,-0.008191,-0.027161,0.043016,-0.074414,0.067527,0.034296,0.002196,-3.104821
0.478333,0.026890,-0.153884,-0.929502,0.012408,0.007698,-0.013577,0.277236,0.006673,0.037993,0.051943,-0.081398,0.022725,-0.063486,-0.024958,-2.591546
0.479167,-0.038360,0.200842,-0.887255,0.007600,0.034393,0.015441,0.398008,-0.003067,-0.007568,-0.036034,-0.004036,0.078277,0.044734,-0.013044,-2.697549
0.480000,-0.089277,0.103991,0.154410,-0.005914,0.059970,0.011042,0.410068,0.002273,-0.023049,-0.008219,0.322948,0.055360,0.079972,-0.008602,-2.958015
0.480833,-0.105100,-0.070106,1.064813,0.001466,0.112768,-0.015940,0.336281,-0.005986,-0.019176,-0.058862,0.347953,0.028756,-0.056896,-0.002325,-3.039634
0.481667,-0.041109,0.264668,0.703095,-0.024731,0.121777,-0.074818,0.245731,-0.028598,0.004160,0.029163,0.270551,0.051731,0.162086,0.008229,-1.978907
0.482500,-0.052920,0.331810,0.040666,-0.011413,0.079454,-0.057727,0.196785,0.003569,0.056534,-0.009805,0.103228,0.003907,0.215463,0.011615,-1.219214
0.483333,0.013763,0.075936,-0.546967,-0.008929,0.009675,-0.037320,0.179117,-0.000572,0.026211,-0.015706,-0.019473,-0.037033,0.245307,0.008596,-1.367746
0.484167,-0.011006,0.009280,-0.907155,-0.006441,-0.033174,-0.000044,0.112028,-0.016293,0.004408,-0.018142,-0.068005,0.003849,0.424583,-0.008001,-0.931962
0.485000,-0.066761,0.246421,-0.528952,-0.012332,-0.013936,0.041709,0.024488,0.000816,-0.016993,-0.012690,-0.086834,-0.023571,0.314291,-0.015287,0.617761
0.485833,-0.050764,0.062078,0.219224,-0.014389,-0.003196,0.061502,0.006626,-0.000814,-0.026264,0.006605,-0.106701,-0.056558,0.309379,-0.009755,1.926487
0.486667,-0.066726,-0.125387,0.380979,0.007384,-0.005929,0.047692,0.069803,0.022007,-0.039750,-0.025716,-0.147209,-0.028708,0.232657,-0.001474,2.053967
0.487500,-0.023962,0.125722,1.030939,0.000507,-0.010468,0.031818,0.229776,0.016639,-0.060818,0.006778,-0.167845,-0.004077,0.218883,0.009705,1.728261
0.488333,-0.000855,-0.110702,2.404095,-0.002666,-0.073652,0.009705,0.154989,-0.008216,-0.066124,-0.009584,-0.117412,-0.067926,0.609187,0.020732,1.733102
0.489167,-0.022386,-0.252897,4.393663,-0.012045,-0.128101,0.049200,-0.013872,0.014734,-0.019198,0.042087,-0.078378,-0.121645,0.322959,0.013293,2.366976
0.490000,0.113510,0.102523,5.025382,0.004723,-0.182259,0.043738,-0.195642,0.010571,0.019090,0.027674,-0.120992,-0.111478,-0.115861,-0.005592,2.934587
0.490833,0.204378,0.081783,4.989365,0.005529,-0.178180,0.001193,-0.429249,-0.002853,-0.021284,-0.008867,0.018360,-0.090177,-0.346193,-0.020514,2.396908
0.491667,0.119628,-0.298385,3.019316,0.033403,-0.134042,-0.021882,-0.380391,0.001927,0.027704,-0.038841,0.282415,-0.041366,-0.198800,-0.010722,0.988247
0.492500,0.109059,0.011929,-0.300413,0.020138,-0.107534,-0.046908,-0.122317,-0.002253,0.034853,-0.039198,0.153862,0.048583,-0.400310,0.014323,0.570551
0.493333,0.039923,-0.068556,-1.920252,0.032719,-0.077282,-0.073941,-0.008269,0.026566,0.019573,0.006551,-0.010115,0.078399,-0.201528,0.023033,0.567423
0.494167,0.052904,-0.259721,-3.122120,0.015445,-0.038997,-0.038335,0.165935,0.000795,0.001124,0.028833,-0.038936,0.053620,0.181480,0.007016,0.332883
0.495000,0.020271,0.143668,-4.144794,0.019121,0.055877,-0.015666,0.199223,-0.017773,-0.005504,0.047949,-0.142415,0.069044,0.035082,-0.001228,-0.349332
0.495833,-0.000926,0.179987,-4.927105,0.011541,0.134898,-0.012082,0.012767,0.009464,-0.001649,0.015077,-0.242267,0.110366,-0.234626,-0.011314,-0.899375
0.496667,0.009278,-0.112320,-5.144982,0.003680,0.146080,-0.013730,-0.072910,-0.006000,-0.030912,0.026810,-0.165443,0.115511,-0.214481,-0.010880,-1.245278
0.497500,0.022778,-0.200872,-4.523971,0.000867,0.152643,-0.001718,-0.328995,-0.010763,0.006687,-0.059062,-0.006065,0.072449,-0.234510,-0.010762,-1.013438
0.498333,0.085628,-0.011656,-3.001416,-0.009730,0.155094,-0.004907,-0.247844,-0.015358,-0.007988,-0.004806,0.228424,0.037655,-0.151652,-0.004549,-0.608137
0.499167,0.035294,0.223412,-1.260237,-0.009508,0.132729,-0.007441,-0.240664,0.003864,0.012831,-0.017486,0.180548,0.030058,-0.170816,0.002114,-0.313072
0.500000,-0.025554,0.063222,0.224103,-0.006875,0.081629,0.025770,-0.084182,-0.001775,0.042013,0.003605,-0.012169,-0.025107,-0.256656,-0.000539,-0.013315
0.500833,-0.084421,-0.061289,1.606220,-0.018780,0.058447,0.040559,0.086012,-0.026325,0.039452,0.015430,0.110220,-0.073979,-0.068870,-0.011894,-0.144841
0.501667,-0.144370,0.246488,1.923912,-0.006935,0.019733,0.038919,0.174785,-0.014550,0.028819,0.047586,0.127687,-0.042868,-0.014747,-0.012724,-0.912798
0.502500,-0.196399,0.041611,1.896436,-0.013160,-0.054161,0.029564,0.234417,-0.003986,0.011348,0.007139,-0.130159,-0.047451,-0.023280,-0.008214,-1.682973
0.503333,-0.253620,-0.259012,1.952996,-0.013507,-0.119106,0.050361,0.061311,-0.004857,0.013144,-0.031001,-0.155002,-0.069282,0.113188,0.001637,-1.670593
0.504167,-0.217292,0.085779,1.917126,-0.019273,-0.118314,0.047632,0.014319,-0.013499,-0.018434,-0.022136,-0.175374,-0.064743,0.018441,0.027361,-2.167586
0.505000,-0.208083,-0.015742,1.987811,-0.011541,-0.067020,0.028892,0.151541,-0.002141,-0.003428,-0.040131,-0.057107,-0.028366,-0.088114,0.022116,-2.025637
0.505833,-0.088327,-0.160701,1.604919,-0.012589,-0.055537,-0.038619,0.107499,0.020828,-0.001047,0.014336,0.204262,0.006101,-0.092596,0.008942,-1.348110
0.506667,0.046803,0.201326,1.298723,-0.022721,-0.040667,-0.090762,0.004836,0.011919,-0.019084,-0.010878,0.290009,-0.006537,-0.323418,-0.008647,0.328535
0.507500,0.146078,-0.009946,1.040100,-0.011415,-0.023158,-0.091923,-0.185939,-0.013151,0.006078,0.046415,0.074885,0.029515,-0.003904,-0.014172,1.911958
0.508333,0.205268,0.135699,0.920904,-0.006436,0.007985,-0.130692,-0.175266,0.003448,-0.008738,0.021101,-0.123857,0.042203,0.536396,-0.003970,1.951383
0.509167,0.164441,0.077992,0.930004,0.028386,0.030950,-0.129489,0.049611,0.021431,0.002367,0.057975,-0.149191,0.006165,0.069826,0.017229,1.410441
0.510000,0.151652,-0.287864,0.591048,0.019514,0.025599,-0.050855,0.045650,-0.001930,0.006258,0.028088,-0.135997,0.010021,-0.152310,0.017382,1.529477
0.510833,0.077809,-0.006029,0.839949,0.012276,0.009936,0.045467,0.053238,0.025217,0.026412,0.076695,-0.027207,0.018032,-0.195846,0.014645,1.929336
0.511667,-0.000160,-0.026188,0.660073,0.016450,0.041332,0.125063,0.081421,0.011468,0.003142,0.030450,0.088978,-0.033010,0.042755,-0.008376,1.575430
0.512500,0.120533,-0.232355,0.116343,0.001527,0.042265,0.104539,0.071938,0.016475,0.007987,-0.026118,0.081318,-0.012830,0.260362,-0.038255,0.482502
0.513333,0.217095,0.040310,0.935608,-0.001809,0.010891,0.128917,0.015487,0.012308,-0.007752,-0.032584,0.093383,0.000870,0.298627,-0.021740,0.106396
0.514167,0.014840,0.079532,1.144155,-0.002857,-0.032816,0.189105,0.085705,-0.008215,-0.039520,-0.140314,0.069757,-0.011324,0.013814,-0.005830,-0.139733
0.515000,-0.084657,-0.109655,0.288124,-0.004507,-0.056833,0.020259,0.040409,-0.002686,-0.005247,-0.141625,0.056954,0.031884,0.009672,0.018477,-0.100668
0.515833,-0.090451,0.200434,-0.552374,0.029262,-0.042872,-0.220869,0.345256,0.016832,-0.024582,-0.076483,0.012676,0.047146,0.074776,0.037905,-1.052137
0.516667,-0.061956,0.137434,-1.694581,-0.005302,0.014379,-0.300177,0.328195,0.004704,-0.024146,0.016825,-0.037782,0.037484,0.097442,0.015832,-0.980327
0.517500,-0.007478,-0.110540,-2.337720,-0.006113,0.019522,-0.188195,-0.008397,-0.003069,-0.001206,-0.018844,0.038605,0.077177,0.014599,-0.019974,-0.449212
0.518333,0.062842,0.148157,-3.282265,0.008982,0.006246,-0.106475,-0.359721,-0.012446,-0.004298,0.042666,0.066633,0.027651,-0.018375,-0.024651,-0.756639
0.519167,0.077519,0.044796,-3.877779,-0.005637,0.033412,-0.098969,-0.587608,0.001133,-0.007641,-0.007055,-0.051843,-0.024142,0.037561,-0.020327,-1.420139
0.520000,0.058760,-0.160210,-3.527615,0.006643,0.045136,0.091716,-0.394893,-0.001859,0.006917,0.021074,-0.083389,-0.011082,0.316755,-0.015699,-1.075660
0.520833,0.032436,0.220487,-2.012656,-0.001634,0.076166,0.385127,-0.245978,-0.014252,0.015112,0.004855,-0.073039,-0.007187,0.369847,0.015021,-0.612912
0.521667,-0.043022,0.038900,-0.052376,0.013020,0.076873,0.203661,-0.156955,0.006068,-0.006706,0.050056,-0.040798,-0.034284,0.028176,0.023002,0.234498
0.522500,-0.102206,-0.003750,1.555550,-0.014703,0.062782,0.095191,0.406017,-0.002389,0.011810,0.060568,-0.045725,-0.063077,-0.293169,0.020300,0.722506
0.523333,-0.021415,0.213766,2.061568,0.003082,0.071543,0.353359,1.081250,-0.030921,-0.002272,0.037325,-0.136194,-0.079978,-0.183271,0.007829,0.918798
0.524167,-0.111805,-0.222628,1.614441,-0.000764,-0.002161,0.244420,0.644783,-0.016651,0.004155,0.049768,-0.168152,-0.012649,-0.300744,-0.015325,1.699006
0.525000,-0.244460,-0.306999,0.739782,0.001523,-0.074589,0.021864,0.082918,-0.024113,-0.022917,-0.017906,-0.042563,-0.018080,0.117419,-0.013609,2.590842
0.525833,-0.183787,0.184122,-0.339781,0.002005,-0.089306,-0.067847,0.061830,-0.017434,-0.023967,0.013600,0.064814,-0.039177,0.445179,-0.008234,2.819598
0.526667,-0.092129,-0.068760,-1.071424,-0.014735,-0.085086,-0.095637,-0.366362,-0.026199,-0.007988,0.002836,0.062902,-0.010293,-0.084821,0.011024,2.481610
0.527500,0.048391,-0.276368,-1.231201,-0.004451,-0.060558,-0.120221,-0.753336,-0.013157,0.005651,0.057832,-0.061093,0.006050,-0.222143,0.006172,0.695093
0.528333,0.147631,0.134518,-1.089108,0.005080,-0.035713,-0.127677,-0.733157,0.001418,0.041376,0.004476,-0.116105,-0.025199,-0.131615,-0.007838,-1.530164
0.529167,0.134536,0.200876,-0.761972,-0.006593,-0.044258,-0.109869,-0.727061,0.000609,0.022750,0.008466,-0.087771,0.006481,-0.188956,-0.014982,-2.772221
0.530000,0.036936,0.014384,0.688094,0.016677,-0.061150,-0.036371,-0.311549,-0.006253,0.011885,-0.060523,-0.046413,0.034154,-0.214318,-0.004123,-2.586884
0.530833,-0.009757,0.248856,1.814914,-0.000492,-0.077050,-0.027491,0.235304,0.010759,-0.006775,-0.005977,0.244493,-0.015982,-0.100335,0.007804,-1.818333
0.531667,0.009178,0.209865,1.392566,-0.009429,-0.062778,-0.027584,0.392354,0.016721,0.001720,-0.031620,0.551193,-0.001817,-0.157120,0.011031,-1.577590
0.532500,-0.030695,-0.112181,0.968417,0.002225,-0.023172,0.007575,0.198316,0.031792,-0.000924,0.004432,0.244718,0.042822,-0.176904,0.016851,-1.294798
0.533333,-0.010281,0.096504,0.916094,-0.010700,-0.001672,0.021991,0.137611,0.020738,0.026342,0.027235,-0.076029,0.024445,-0.028965,0.002071,-0.361133
0.534167,-0.041811,0.104773,0.613840,-0.012041,-0.011655,-0.045344,0.183795,0.011036,0.013024,-0.007176,0.039071,0.077372,-0.183925,-0.003709,-0.400808
0.535000,-0.093932,-0.362569,0.676061,-0.002104,0.019106,-0.173009,0.123492,0.040994,-0.020275,-0.016428,0.055180,0.074076,0.008511,-0.011933,-0.887881
0.535833,-0.140490,-0.526621,1.124902,0.012551,0.040001,-0.258842,0.126003,0.004107,0.011433,-0.059439,-0.061906,0.034273,0.069041,-0.001391,-1.293646
0.536667,-0.015871,-0.417942,1.592696,0.010867,0.067708,-0.198365,0.235488,0.012528,0.015377,-0.017971,-0.123770,0.039774,0.121093,0.007164,-1.466909
0.537500,0.086946,-0.274141,1.981628,-0.002117,0.114020,-0.066677,0.064570,0.014067,0.009710,-0.019453,-0.174688,-0.055580,0.321065,-0.008699,-0.809626
0.538333,0.071556,0.202468,1.763087,0.004882,0.121901,0.020706,-0.242083,0.021534,-0.023420,0.006902,-0.105283,-0.124063,0.370353,0.017242,1.364947
0.539167,0.109487,0.213232,1.265400,0.006995,0.079020,0.041053,-0.086942,0.006535,-0.004518,-0.036421,0.036358,-0.095325,0.302550,0.010983,2.334251
0.540000,0.116511,-0.084685,1.157694,-0.005235,0.026133,-0.099926,0.321523,-0.011108,-0.003929,0.018720,-0.048860,-0.040933,0.314236,-0.026105,1.982038
0.540833,0.146938,0.024958,0.898107,0.006802,0.013452,-0.192717,0.489329,0.012841,-0.010972,0.035447,-0.119404,0.022623,0.264188,-0.020015,1.471060
0.541667,0.201196,-0.001977,-0.113187,-0.028606,0.015035,-0.182688,0.174541,-0.003883,-0.020001,0.062279,-0.149037,0.023003,0.341260,0.001785,0.742743
0.542500,0.132610,-0.119585,-1.224803,-0.006627,0.000507,-0.176508,-0.153733,-0.031848,-0.006906,-0.016144,-0.150430,0.021675,0.417425,0.011524,0.091858
0.543333,0.109886,0.070193,-2.323389,-0.038950,-0.001768,-0.114697,-0.202488,-0.010040,0.006647,-0.006339,-0.125714,0.072931,0.143449,0.011798,-0.409388
0.544167,0.129757,0.310029,-3.079552,-0.022575,-0.011499,0.050301,-0.117885,-0.020721,0.020967,-0.026256,-0.010642,0.016060,0.076531,0.009015,-0.693643
0.545000,-0.008804,0.046856,-2.381602,0.017630,-0.016966,0.706432,-0.041967,-0.014472,-0.015972,0.010629,0.222874,0.011695,0.012981,-0.014067,-0.160395
0.545833,-0.043111,-0.009762,-1.723518,0.009341,-0.020491,1.137170,-0.018824,-0.021980,-0.014901,0.035958,0.381061,0.076116,-0.199700,-0.009992,0.494177
0.546667,-0.081269,0.393319,-1.802661,0.019393,-0.022874,0.385950,-0.038984,-0.015031,-0.016400,-0.003359,0.133432,0.058669,-0.366331,0.001403,0.981605
0.547500,-0.136466,0.321158,-2.137381,0.015438,0.021015,0.121573,-0.038803,-0.003403,-0.009780,0.002394,-0.130898,0.031931,-0.563556,0.000283,0.976506
0.548333,-0.235616,0.056744,-1.990594,0.019447,0.031795,0.166658,-0.035039,-0.019914,0.020687,-0.037255,-0.142289,0.008053,-0.738685,0.002671,1.051625
0.549167,-0.254255,0.258243,-0.845399,0.020127,-0.029936,0.041970,-0.024600,-0.016659,-0.011661,0.013658,-0.113431,-0.002795,-0.611883,0.004905,1.023524
0.550000,-0.290530,0.260861,0.927940,0.006028,-0.056327,-0.154212,-0.116684,0.003762,-0.022736,-0.010869,-0.101073,-0.016690,-0.660986,0.002409,0.724400
0.550833,-0.163646,-0.077605,1.649002,0.013614,-0.056253,-0.203692,-0.110257,0.001976,-0.016192,0.020096,0.153891,-0.050009,-0.603551,-0.004970,0.681561
0.551667,-0.047711,-0.003839,1.257319,-0.002442,-0.035835,-0.182479,-0.099978,-0.004471,-0.021774,-0.029084,0.333172,-0.011704,-0.362913,-0.016468,0.225419
0.552500,-0.015196,0.148888,0.888626,0.005002,-0.001950,-0.153769,-0.035983,0.007461,-0.013230,-0.018931,0.073008,-0.023732,-0.369247,-0.002482,-0.522722
0.553333,0.043022,-0.215606,0.444526,0.013049,0.000230,-0.145663,0.006035,-0.004495,0.021653,0.024325,-0.057748,-0.065372,-0.102535,0.018372,-1.141634
0.554167,0.141319,-0.224235,0.284964,0.008872,-0.025628,-0.147037,0.028380,0.019936,0.053277,-0.013439,-0.043531,-0.027856,0.026323,0.026259,-1.114279
0.555000,0.151255,0.029914,-0.030513,0.011229,-0.033127,-0.162773,-0.086251,0.027502,0.035560,0.012596,-0.057526,-0.010683,-0.078342,0.018889,0.171325
0.555833,0.110721,-0.258663,-0.386598,-0.012542,-0.080692,-0.209790,-0.147066,0.003862,0.025109,-0.025884,-0.048313,-0.054750,0.049600,0.007708,0.602516
0.556667,-0.010904,-0.468908,-0.307427,-0.014079,-0.069575,-0.237535,-0.088983,0.021651,0.007881,0.038370,-0.023824,0.011456,0.412047,-0.012932,-0.457406
0.557500,-0.133155,-0.314814,-0.110947,-0.000561,-0.040336,-0.178492,0.136309,0.023803,-0.018576,-0.005965,-0.010764,0.049556,0.504381,-0.036620,-0.672069
0.558333,-0.000703,-0.019080,0.087300,-0.007698,-0.005916,-0.088555,0.275012,0.016272,-0.031844,0.011712,-0.009590,-0.014277,0.572156,-0.039858,0.631775
0.559167,0.132286,-0.236349,0.454251,-0.009554,0.010069,-0.043430,0.199228,0.003333,-0.031940,-0.019520,-0.048681,-0.010786,0.645356,-0.009372,1.504071
0.560000,0.125774,-0.278158,0.797206,-0.024134,0.043357,-0.017167,-0.025457,-0.012113,-0.021326,0.015090,-0.088664,-0.027819,0.564165,0.034851,0.232037
0.560833,0.126277,0.061504,1.007230,-0.026107,0.080248,0.007208,-0.145917,0.019528,-0.020624,-0.002554,-0.093219,-0.047623,0.913258,0.027656,-1.138370
0.561667,0.092774,0.166985,1.208821,-0.029812,0.085217,0.033878,-0.083282,-0.012673,0.043230,0.027800,-0.000234,-0.028791,0.834744,0.001698,-1.819092
0.562500,0.054117,0.027969,1.326431,-0.018306,0.066834,0.032559,-0.016706,-0.022348,0.026469,0.027115,0.066092,-0.067542,0.144118,-0.018153,-1.542454
0.563333,-0.007999,-0.035489,1.225093,-0.010194,0.034731,0.067133,0.027545,-0.014377,0.015887,-0.018647,0.039090,-0.049069,0.017507,-0.019077,-2.072774
0.564167,0.027728,0.294999,1.551729,-0.005771,0.042787,0.063401,-0.082238,-0.020644,0.028084,-0.001456,0.012153,-0.018777,0.103657,0.003502,-2.956581
0.565000,-0.005490,0.082794,1.130906,0.010540,0.082462,0.091979,-0.026725,0.011345,0.109418,-0.056507,0.011385,-0.044506,0.006183,0.021510,-2.910662
0.565833,0.033014,-0.094005,0.648936,-0.000312,0.046792,0.110114,0.123084,-0.006142,0.153199,0.009373,0.000174,-0.017861,0.485827,0.008244,-1.898863
0.566667,-0.021577,0.279836,0.085584,0.001513,-0.024405,0.137004,0.237428,-0.001989,0.108588,-0.006762,0.023848,0.053276,-0.195985,0.000935,-0.323849
0.567500,-0.072701,0.309477,-0.921986,-0.005180,-0.066445,0.202981,-0.068289,0.009010,0.047280,0.050415,0.019852,0.055270,-0.299799,-0.002706,1.221336
0.568333,-0.076290,-0.015377,-1.071133,0.017462,-0.073550,0.156337,-0.249120,-0.007008,-0.051345,-0.001901,0.004520,0.100001,-0.427503,-0.003748,2.044436
0.569167,-0.106986,0.072549,-0.315564,0.036035,-0.082519,0.067824,-0.026244,-0.014632,-0.165171,0.012215,0.012186,0.151177,-0.424619,-0.015771,2.279465
0.570000,-0.159325,0.082587,-0.177060,0.023692,-0.073088,0.025884,0.076978,-0.006527,-0.273756,-0.024279,0.019656,0.119848,-0.387514,-0.010547,2.247059
0.570833,-0.010246,-0.161468,-1.188678,0.017062,-0.010346,-0.135109,0.044373,-0.000532,-0.177357,-0.013581,0.026625,0.073914,-0.358201,0.007955,2.490080
0.571667,0.007584,-0.052447,-1.497158,0.019508,0.041582,-0.265856,0.067873,-0.001821,-0.053573,-0.009259,-0.006130,0.050743,-0.349041,0.022645,2.522201
0.572500,-0.026658,0.089830,-1.215465,-0.005285,0.068314,-0.134061,0.061679,-0.016180,0.030484,-0.017424,-0.006440,0.018875,-0.120097,0.011397,1.187650
0.573333,0.034717,-0.203399,-1.513543,-0.013524,0.077896,0.002139,0.043885,0.000655,0.039139,0.017154,0.012104,0.037479,-0.139815,-0.001836,-0.383495
0.574167,0.062152,0.004735,-2.124514,0.022100,0.055946,0.025432,0.034854,0.021994,-0.000558,-0.004564,0.001119,0.033112,-0.194787,-0.013392,-1.013673
0.575000,0.003760,0.212789,-2.651942,0.005147,0.037060,0.042493,0.000458,-0.012271,-0.018825,0.025754,-0.019265,-0.051193,-0.147336,-0.028613,-1.355422
0.575833,0.019603,-0.027125,-2.697113,0.006255,0.010977,0.060341,0.057615,0.003157,0.024520,-0.005730,-0.025414,-0.107002,-0.229853,-0.007674,-1.392788
0.576667,0.022858,0.122952,-1.939611,-0.010750,-0.020356,0.061264,0.060625,-0.000529,0.043171,0.011450,-0.012763,-0.042976,-0.267821,0.030653,-0.771373
0.577500,-0.015310,0.204437,0.443868,-0.017650,-0.040491,0.037303,0.020182,0.016504,0.023302,-0.034556,0.003715,0.034627,-0.028781,0.033114,0.074957
0.578333,-0.034624,-0.146193,2.749639,-0.020870,-0.064866,0.025042,-0.039598,0.009705,0.080176,0.021954,0.032552,-0.015241,-0.076366,0.015426,0.524654
0.579167,0.028704,0.057488,3.308205,-0.009285,-0.072598,-0.000285,-0.086821,-0.008715,0.019149,-0.008384,0.026734,-0.065676,0.131087,0.007952,1.630699
0.580000,0.047732,0.135498,2.994271,-0.001070,-0.048747,-0.006235,-0.002463,0.019992,0.014836,0.025029,0.001505,-0.049737,0.580073,-0.017995,1.760399
0.580833,0.023688,-0.286505,2.026810,0.017950,-0.008427,-0.028273,0.116288,0.002745,0.009457,-0.028719,-0.008815,-0.067252,0.172885,-0.038001,1.099353
0.581667,-0.045858,-0.203757,0.882962,-0.001374,0.020135,-0.022373,0.207197,-0.010718,-0.019986,0.011491,-0.012172,-0.064994,0.011606,-0.027500,0.306283
0.582500,-0.008919,0.094111,0.089652,0.007318,0.023673,-0.013942,0.241154,-0.001176,-0.000824,-0.019902,-0.011476,-0.021921,-0.078469,-0.015329,0.197496
0.583333,0.021448,0.061294,-0.348556,0.026615,0.016699,-0.005349,0.294812,-0.001446,0.057966,-0.015018,-0.013446,-0.051411,-0.144269,-0.000420,-0.116467
0.584167,-0.044774,-0.182104,-0.269337,0.007525,0.009003,0.016295,0.485587,0.013483,0.060122,0.009507,-0.012596,-0.036120,-0.076730,0.019671,-1.132251
0.585000,-0.066282,-0.331481,0.252011,0.011223,0.048988,0.015965,-0.122850,-0.010571,0.049596,-0.004614,-0.017014,0.019239,-0.143646,0.009698,-1.041406
0.585833,-0.035591,-0.170871,0.917532,-0.021809,0.025304,0.018301,-1.075508,0.013807,0.013416,0.025777,-0.017086,-0.007078,0.257268,-0.004245,0.555367
0.586667,0.046234,0.022545,0.898846,-0.046563,-0.002344,-0.006985,-0.945974,0.005727,-0.093139,-0.027647,-0.010370,-0.054461,0.475409,-0.008881,0.470527
0.587500,0.118162,-0.180071,0.227097,-0.016047,-0.035888,0.000156,-0.601680,-0.006757,-0.124219,0.003115,-0.007540,-0.056649,-0.175991,-0.000698,-0.455671
0.588333,0.102373,0.221596,-0.299352,0.027015,-0.085039,-0.012829,-0.232368,-0.000014,-0.115412,-0.044598,-0.014390,-0.024437,-0.297838,0.020765,-0.579914
0.589167,0.043270,0.069818,-0.223893,0.021132,-0.095112,0.010004,0.087140,-0.000465,-0.132222,0.030630,-0.046170,0.014295,-0.355383,0.018581,-0.542508
0.590000,0.003869,0.077757,-0.254094,0.018802,-0.106181,-0.003412,0.051638,0.013381,-0.101616,0.009529,-0.052212,0.005726,-0.397349,0.009232,0.594364
0.590833,-0.012480,0.388813,0.060868,-0.003921,-0.102313,0.000599,0.150618,0.019377,-0.031290,0.024087,-0.041664,0.033668,-0.067082,-0.011706,1.325822
0.591667,-0.024855,0.010064,0.352099,-0.007047,-0.048664,-0.008810,0.289012,-0.015155,0.102178,0.039055,-0.076315,0.096630,0.027656,-0.014478,0.616463
0.592500,-0.074310,-0.200374,-0.313248,-0.017870,0.052535,-0.014407,0.316985,0.008336,0.106900,0.052754,-0.002198,0.060822,0.219742,0.000763,-0.778851
0.593333,-0.076166,-0.051813,-1.067592,-0.030421,0.095587,-0.028551,0.294043,0.000719,0.071895,0.023830,0.283231,0.075346,0.486900,0.011434,-1.896817
0.594167,-0.045231,-0.173884,-1.154033,-0.010801,0.122346,-0.057029,0.306390,0.000276,0.276603,-0.016132,0.234625,0.134265,0.400738,0.025621,-2.002151
0.595000,-0.005164,-0.239667,-0.419391,-0.019410,0.147338,-0.049002,0.231623,0.010959,0.604647,-0.018150,0.034785,0.105595,0.390779,0.014942,-2.673576
0.595833,0.006645,-0.076368,-0.261387,-0.026314,0.134882,-0.076456,0.054444,-0.012410,0.485551,-0.038377,-0.015540,0.062880,0.400156,-0.006262,-2.944694
0.596667,0.075790,0.277296,-0.425385,-0.046895,0.085908,-0.087922,0.053108,-0.009568,0.063864,0.020081,-0.030187,0.030523,0.206663,-0.012357,-2.310499
0.597500,-0.050877,0.375785,0.070193,-0.013224,0.036578,-0.036960,0.159475,-0.005086,-0.078843,-0.019467,-0.043493,0.019490,0.286555,-0.023485,-1.496714
0.598333,-0.136087,-0.020628,1.091212,-0.037424,-0.007470,0.013018,0.365046,-0.014070,-0.109280,0.008846,-0.047681,-0.051117,-0.000476,-0.033545,-0.681616
0.599167,-0.015051,-0.523035,0.498255,0.009162,-0.016657,0.034917,0.400065,-0.014240,-0.289659,-0.060226,-0.045050,-0.054681,-0.022533,-0.015682,-0.266816
0.600000,0.103030,-0.129764,-0.895816,0.035462,-0.022443,0.070616,0.137432,-0.010315,-0.497649,-0.038838,-0.040945,-0.034571,0.100418,0.025831,0.435245
0.600833,0.032450,0.055873,-1.488007,0.036156,-0.074918,0.058693,-0.365189,-0.010983,-0.447781,-0.070718,-0.035065,-0.092599,0.069531,0.028279,1.466913
0.601667,0.015057,0.346554,-1.530980,0.047271,-0.099664,0.062083,-0.697820,0.006052,-0.300721,0.000548,-0.029702,-0.076976,-0.110582,-0.003760,2.142082
0.602500,0.059084,0.486996,-1.441706,0.045623,-0.083152,0.014017,-0.536859,-0.014731,-0.296913,0.001024,-0.023790,-0.069063,-0.145872,-0.022373,3.418001
0.603333,0.113103,0.136437,-0.805179,0.024198,-0.026202,0.019839,-0.198358,-0.017157,-0.025222,0.046843,-0.022359,-0.065077,-0.133537,-0.014286,3.670789
0.604167,0.002548,0.299922,0.119905,0.016259,0.006888,-0.059256,-0.116936,-0.006385,0.162421,0.023424,-0.035478,0.011862,-0.242028,-0.001928,3.092557
0.605000,-0.047673,0.310726,0.434476,-0.001397,0.011325,-0.208883,-0.031867,-0.005122,-0.013412,0.007991,-0.079009,0.008228,-0.149061,0.013023,3.348519
0.605833,-0.069915,-0.122982,0.696250,0.010891,0.003071,-0.171293,0.166048,-0.003264,-0.082619,-0.002342,-0.085195,0.007930,-0.298466,0.025073,3.769768
0.606667,0.019132,0.117946,1.249921,0.013275,0.002816,-0.094782,0.251386,-0.005359,-0.083049,-0.025417,-0.039376,0.061467,-0.194706,0.013472,3.073450
0.607500,0.089001,0.066328,1.254836,0.007258,0.013552,0.082754,0.083101,0.016399,-0.051019,0.030632,0.049760,0.023113,-0.128484,0.008280,1.224453
0.608333,0.064617,-0.104713,0.994256,0.020274,0.032476,0.422646,-0.053827,0.014587,0.052381,0.017498,0.183292,-0.014811,-0.073681,-0.012781,0.012635
0.609167,-0.013733,0.316446,0.427678,0.006360,0.036038,0.483737,-0.069582,-0.009086,0.131781,0.083043,0.201776,0.020184,-0.031737,-0.010190,-1.459225
0.610000,-0.044423,0.012500,0.575142,0.006832,0.091939,0.255919,-0.245750,0.002172,0.266513,0.025242,0.067380,0.020693,-0.214000,0.000490,-3.164148
0.610833,-0.021339,-0.447677,0.867502,0.014784,0.094091,0.002812,-0.135926,0.010239,0.302736,0.014230,-0.010386,-0.028522,-0.355990,0.011782,-4.103032
0.611667,-0.075236,-0.120564,0.270539,-0.004308,0.017129,-0.098033,0.054132,0.020480,0.148694,-0.029801,-0.031363,-0.045495,-0.266411,0.007207,-3.526476
0.612500,-0.077924,-0.073850,0.256145,0.003076,-0.030479,-0.141592,0.106145,0.016586,0.074084,-0.001875,-0.035370,-0.010511,-0.328871,-0.013234,-3.460836
0.613333,-0.105828,-0.254258,0.194630,-0.007503,-0.043409,-0.125652,0.126078,-0.006159,0.043248,-0.026055,-0.027743,0.002765,-0.154988,-0.024822,-3.899234
0.614167,-0.084763,-0.629817,0.098105,-0.009680,-0.048368,-0.109337,0.145730,0.010847,-0.050303,-0.029567,-0.022975,-0.081009,0.097086,-0.016570,-2.869122
0.615000,-0.073601,-1.167735,0.089642,-0.000889,-0.041227,-0.052129,0.092066,0.008252,-0.001959,-0.014557,-0.020299,-0.085096,0.137394,-0.011976,-1.487314
0.615833,0.039234,-0.770573,-0.084387,-0.016861,-0.052030,-0.039392,0.106278,-0.002500,0.084782,-0.001029,-0.022458,-0.007627,0.246373,0.005135,0.301088
0.616667,0.090809,-0.527419,-0.002354,-0.036403,-0.076014,-0.033951,0.161555,0.001319,0.031021,-0.013713,-0.021970,0.019294,0.247315,0.020878,0.931176
0.617500,0.107863,-0.119861,-0.464171,-0.045334,-0.091469,-0.055537,0.055304,-0.001970,0.068599,-0.011272,-0.018219,0.029120,0.205672,0.032964,1.276833
0.618333,0.090734,0.638090,-1.117774,-0.059681,-0.073779,-0.039944,0.112886,0.021034,0.173903,0.024590,-0.009216,0.058353,0.253722,0.015760,1.365351
0.619167,0.052728,0.507880,-1.051135,-0.031069,-0.059958,-0.056621,0.557437,0.017209,0.207036,-0.010053,-0.007922,0.107783,0.293320,-0.018376,0.757482
0.620000,0.010353,0.589665,-0.520168,-0.032883,-0.034985,-0.155773,0.847942,-0.000804,0.270246,0.027763,-0.009906,0.068791,0.159164,-0.028398,-0.107393
0.620833,-0.058794,0.594885,-0.054834,-0.036725,-0.042577,-0.139180,0.365889,-0.008775,0.294726,-0.006630,-0.007682,0.032945,0.257212,-0.008508,0.278368
0.621667,-0.110749,0.234804,0.098416,-0.011598,-0.047866,-0.015513,-0.717568,0.012799,0.042607,0.020730,-0.001391,0.062817,0.090842,0.012759,0.960809
0.622500,-0.104296,0.455087,0.043799,-0.040026,0.022620,0.020256,-0.815690,0.000253,-0.182894,0.011566,-0.001250,0.015435,0.065499,0.015261,1.174183
0.623333,-0.009518,0.609101,-0.375059,-0.024932,0.092054,0.041116,-0.319700,0.005737,-0.007132,0.018361,-0.000687,-0.012465,0.113881,0.014407,2.536684
0.624167,0.030766,0.197568,-0.419418,0.007471,0.110153,0.046516,-0.352288,0.002055,0.030408,-0.020845,-0.010224,-0.006852,0.019738,-0.009336,3.611396
0.625000,0.100479,0.130611,0.149177,0.021659,0.093308,0.062005,-0.413488,-0.006403,-0.411213,-0.036933,-0.059915,-0.041901,0.014487,-0.009735,2.604375
0.625833,0.231047,0.156655,0.610976,0.038723,0.074532,0.046763,-0.382318,0.007336,-0.813376,-0.013733,-0.082158,-0.063616,0.043577,0.002680,0.861519
0.626667,0.172058,-0.337867,0.779428,0.048008,0.051886,0.016126,-0.335358,-0.015051,-0.813978,-0.000988,-0.059714,-0.010834,-0.187423,0.003491,-0.304076
0.627500,0.097902,-0.226146,0.777956,0.023448,0.006935,0.005263,0.188869,-0.015150,-0.745922,0.031208,-0.065062,-0.031135,-0.082910,0.003990,-0.859151
0.628333,-0.032341,0.010616,0.453251,0.030826,0.010193,0.015929,-0.050242,-0.005045,-0.446629,-0.050502,0.139369,-0.033151,-0.089453,0.014246,-0.529889
0.629167,-0.142707,-0.252712,0.296462,0.049863,0.017259,0.018591,-0.448188,-0.001085,-0.409306,-0.011586,0.371071,0.005668,-0.034263,0.018081,-0.224763
0.630000,-0.251998,-0.241137,0.170308,0.069123,0.003859,0.020637,-0.098629,-0.001915,-0.073071,-0.051165,0.105735,-0.003366,0.099056,0.007714,-0.136914
0.630833,-0.089858,0.081175,-0.024408,0.073349,0.042295,0.003049,0.316796,-0.017008,0.959250,-0.008861,-0.027998,-0.045642,0.017015,-0.036082,0.029438
0.631667,0.032554,0.193405,-0.236185,0.082525,0.071189,0.010734,0.349138,-0.012805,1.592068,0.006539,-0.035343,-0.051921,-0.068943,-0.039761,-0.326926
0.632500,-0.004272,0.029288,-0.142733,0.090845,0.067297,0.028773,0.144831,-0.004414,0.932725,0.047535,-0.049386,0.005531,0.008254,-0.020717,-2.204474
0.633333,0.003643,-0.250852,0.293767,0.053587,0.020031,0.016296,0.116394,-0.029369,0.032687,0.050203,-0.047881,0.061217,-0.236454,-0.000159,-4.080196
0.634167,-0.038182,-0.122455,0.320529,0.003999,-0.027339,0.018785,0.317122,0.002363,-0.122981,0.025539,-0.048259,0.045369,-0.212654,0.027866,-3.831277
0.635000,-0.057144,0.029474,-0.363626,-0.026655,-0.047575,0.009993,0.349065,-0.002740,-0.382886,0.021007,-0.042618,0.044927,-0.166838,0.021702,-2.554524
0.635833,-0.051746,-0.261230,-1.328268,-0.057925,-0.037089,0.037360,0.208818,-0.015059,-0.459032,-0.008246,-0.026873,0.007214,-0.176700,-0.024446,-0.749864
0.636667,0.008810,-0.034475,-1.348808,-0.070598,-0.042345,0.068358,0.178874,-0.006648,-0.186130,0.001724,0.006878,0.019175,0.291976,-0.028485,1.471875
0.637500,0.023944,-0.154486,-1.074358,-0.125721,-0.035037,0.055344,0.123277,-0.005712,-0.416380,-0.038495,0.014814,0.063845,0.053933,0.003180,1.451858
0.638333,0.015755,-0.392782,-1.188923,-0.115421,-0.046975,0.036722,0.123149,0.012346,0.029697,0.005534,-0.006293,0.000511,-0.261638,0.029199,0.911553
0.639167,0.053037,-0.145185,-1.161871,-0.095240,-0.049844,0.026169,0.094308,0.009255,0.472113,0.000760,-0.014047,0.016074,-0.212896,0.043014,1.959089
0.640000,0.044211,0.298799,-1.101434,-0.072956,-0.026919,-0.003385,0.022867,-0.001676,0.307298,0.010815,-0.010597,0.035749,-0.331949,0.018533,2.235152
0.640833,0.058527,0.110445,-0.712442,-0.034822,0.006340,-0.028507,-0.006837,-0.000579,0.010601,-0.032353,-0.008160,-0.001966,-0.294109,-0.010214,1.374455
0.641667,0.030499,-0.099747,-0.356967,-0.002488,-0.034946,-0.029279,0.007404,0.004797,0.047581,0.017439,-0.046717,-0.030547,-0.225887,-0.011489,0.565606
0.642500,-0.017469,0.198334,-0.358884,0.014608,-0.065206,-0.047120,-0.032179,0.013722,0.300126,-0.012844,-0.008771,-0.050142,-0.172163,-0.009856,0.826427
0.643333,0.012711,0.149160,0.524428,0.015122,-0.028153,-0.041511,-0.056289,0.012187,0.371789,0.018553,0.140480,-0.037088,0.289549,-0.011267,2.025093
0.644167,0.072337,-0.164976,1.903810,0.028075,-0.008021,-0.036929,-0.089485,-0.004358,0.229421,0.000699,0.101368,-0.071934,0.525042,-0.009616,1.560814
0.645000,0.080054,0.144350,2.825802,0.012912,-0.007554,-0.035874,-0.111316,0.001039,-0.022492,0.003325,0.005451,-0.079578,-0.058113,0.014474,-0.028830
0.645833,0.061782,0.188224,3.328696,0.023682,0.068785,-0.037025,-0.094915,0.026721,0.084608,0.016359,-0.081781,-0.062886,0.061420,0.009886,-1.212055
0.646667,0.046186,-0.171681,3.105921,0.032186,0.120162,-0.040426,-0.063607,-0.000383,0.070812,-0.036343,-0.154189,-0.072934,0.201406,-0.004152,-1.530001
0.647500,0.001972,-0.172966,2.552410,0.032808,0.084967,-0.039857,-0.044965,0.001222,-0.155593,0.034581,-0.142608,-0.025902,0.892337,-0.032678,-1.446266
0.648333,-0.029365,0.178031,1.418848,0.041743,0.052661,-0.040988,-0.002902,-0.002787,-0.316568,0.006197,-0.046991,0.015087,0.421449,-0.020302,-2.181163
0.649167,-0.066290,0.245697,0.209082,0.025900,0.027268,-0.016676,-0.157192,0.019944,-0.409616,0.001489,0.008200,-0.005606,0.201087,0.010546,-3.120844
0.650000,-0.088195,0.049473,-0.489392,0.025725,-0.009769,-0.015300,0.072912,0.007465,-0.350415,-0.038748,0.016758,0.042232,-0.025163,0.015613,-3.009400
0.650833,-0.080721,-0.204283,-1.220453,0.027796,-0.038087,-0.007560,0.216871,-0.011847,-0.354282,-0.028610,0.013833,0.074733,0.162204,0.018855,-1.821314
0.651667,-0.108387,0.062485,-1.383147,0.009373,-0.085994,-0.023202,-0.042459,0.023647,-0.444230,0.005964,0.001151,0.049683,0.483190,0.011574,-0.286929
0.652500,-0.103559,0.097106,-0.611955,0.040332,-0.158448,0.022475,-0.220777,0.013685,-0.478433,-0.003235,0.021789,0.057616,0.028788,-0.000433,0.701127
0.653333,0.085635,-0.114265,-1.336082,0.006669,-0.188993,0.059458,-0.344450,-0.008485,-0.275201,0.024207,0.055800,0.018161,-0.131425,-0.013200,2.128770
0.654167,0.097772,0.162657,-1.953097,0.009069,-0.167936,0.060306,-0.476260,-0.002445,-0.115450,0.009251,0.023110,0.015891,-0.444615,-0.010402,3.181873
0.655000,-0.010779,0.278944,-1.573487,-0.006976,-0.138839,0.039394,-0.265280,-0.006361,0.047385,0.028952,0.010568,0.025355,-0.330583,0.008875,3.518138
0.655833,-0.145493,-0.018982,-1.907949,-0.001374,-0.026863,0.027885,0.035206,0.006447,0.405920,-0.046236,-0.028197,-0.011105,-0.422514,0.010603,3.322918
0.656667,-0.216113,-0.246329,-1.626984,-0.012924,0.108551,0.020929,-0.120558,-0.001428,0.480484,-0.033666,0.006615,0.003572,-0.380224,0.016295,3.124808
0.657500,-0.077597,-0.277500,-1.065931,0.005630,0.174381,-0.006613,-0.235667,-0.015667,0.505827,-0.016801,0.109352,0.035976,-0.273678,0.014962,3.559391
0.658333,0.044917,-0.117973,-0.567229,0.004493,0.177078,-0.006337,0.169404,0.019859,0.473016,0.018242,0.133209,-0.012775,-0.294279,-0.016132,2.659985
